q/kF, < omega_p(q)**3 >/wp(0)**3, Sum rule/wp(0)**3, < (omega/wp(0))**3*S > - SR
0.01,5.29085200261086e-05,5.3165180471604325e-05,-2.5666044549572264e-07
0.02,0.000212690752838562,0.00021269806942503299,-7.31658647098901e-09
0.03,0.0004786920788163317,0.0004787145962633614,-2.251744702974406e-08
0.04,0.0008513663320445733,0.0008514020783320402,-3.5746287466945775e-08
0.05,0.0013309943021527681,0.0013310720793415882,-7.77771888200475e-08
0.060000000000000005,0.001917936365347467,0.0019176449751568511,2.913901906158485e-07
0.06999999999999999,0.0026126367028318806,0.0026133918299318707,-7.551270999901077e-07
0.08,0.003415621930540377,0.003415674714281729,-5.278374135171682e-08
0.09,0.004327497298205312,0.004327319485822715,1.7781238259659965e-07
0.09999999999999999,0.005348968970638086,0.005348667376127689,3.015945103969353e-07
0.11,0.006480801706269715,0.006479967120990968,8.345852787472463e-07
0.12,0.007723870229076639,0.007722839015159229,1.0312139174092558e-06
0.13,0.009079118362282318,0.009077078828720648,2.03953356166936e-06
0.14,0.010547592694995549,0.010544597070993098,2.9956240024508335e-06
0.15000000000000002,0.012130410067132396,0.012126250926489713,4.1591406426833705e-06
0.16,0.0138287979357383,0.013823269000571117,5.528935167182711e-06
0.17,0.015644050332815733,0.015636906814444733,7.143518371000024e-06
0.18000000000000002,0.017577581025449887,0.017568116074172455,9.46495127743252e-06
0.19,0.01963086610618318,0.019618929717270805,1.1936388912375112e-05
0.2,0.021805511851057325,0.0217906684870477,1.484336400962502e-05
0.21000000000000002,0.024103206031923726,0.024085034054913627,1.8171977010098678e-05
0.22,0.0265257351409289,0.026504037071864637,2.1698069064261805e-05
0.23,0.029074957320749124,0.02904859222068045,2.6365100068672515e-05
0.24000000000000002,0.03175285408006319,0.03172177988479677,3.107419526642008e-05
0.25,0.03456157947628604,0.03452506277968037,3.651669660566931e-05
0.26,0.03750326727072425,0.03746117424917788,4.209302154636885e-05
0.27,0.040580257475379834,0.040532502412797836,4.775506258199863e-05
0.28,0.043794925814464016,0.0437398925027647,5.5033311699315135e-05
0.29000000000000004,0.04714984186275726,0.047087699714577824,6.214214817943514e-05
0.3,0.05064765364749211,0.05057772060212611,6.993304536599687e-05
0.31,0.054291127478065526,0.05421233667275838,7.879080530714955e-05
0.32,0.05808309280176442,0.05799731880284375,8.577399892067267e-05
0.33,0.06202661065704345,0.06193245299378716,9.415766325628766e-05
0.34,0.06612475226790997,0.06602201482077755,0.00010273744713241995
0.35000000000000003,0.07038091198423663,0.07026883115491357,0.00011208082932305519
0.36000000000000004,0.07479835255745468,0.07467830126602884,0.00012005129142583781
0.37,0.079380674391305,0.07925208315742793,0.00012859123387706783
0.38,0.08413146700353863,0.08399513250738916,0.00013633449614947057
0.39,0.08905470896630041,0.0889107752426027,0.00014393372369771174
0.4,0.09415409479368979,0.09400362886126927,0.0001504659324205182
0.41000000000000003,0.09943400113617329,0.0992792135500738,0.00015478758609949184
0.42000000000000004,0.10489860224076882,0.10473772230823875,0.00016087993253006971
0.43,0.11055220776325518,0.11038628531049388,0.00016592245276129958
0.44,0.11639938052079486,0.11623730207010137,0.00016207845069349247
0.45,0.12244509107009267,0.12228124190289226,0.00016384916720041387
0.46,0.12869401356127338,0.1285333000326768,0.00016071352859658994
0.47000000000000003,0.13515134915795815,0.13499911106526374,0.0001522380926944067
0.48000000000000004,0.14182235986422498,0.14167964079283954,0.0001427190713854387
0.49,0.14871234067474023,0.14858005398584334,0.0001322866888968932
0.5,0.15582721052382842,0.15570971698421657,0.0001174935396118515
0.51,0.16317232209797106,0.16307966664018672,9.265545778433526e-05
0.52,0.17075415598572755,0.17069075578319523,6.340020253231549e-05
0.53,0.17857859266157913,0.17854617144916218,3.242121241694984e-05
0.54,0.18665221329262427,0.18665915116714832,-6.937874524048926e-06
0.55,0.19498164608420346,0.1950346346137645,-5.298852956103772e-05
0.56,0.20357373416599286,0.20367863373491127,-0.00010489956891840402
0.5700000000000001,0.21243532913517724,0.21260542214639203,-0.00017009301121478915
0.5800000000000001,0.2215739136760077,0.22181595412364663,-0.00024204044763892485
0.59,0.23099677656248452,0.23132544881370976,-0.00032867225122523713
0.6,0.24071212501205796,0.2411312000199643,-0.00041907500790633323
0.61,0.25072748576580656,0.2512516591613073,-0.0005241733955007599
0.62,0.2610513345490898,0.2616942109042954,-0.0006428763552056016
0.63,0.2716918994160881,0.27246822426769085,-0.0007763248516027277
0.64,0.2826584707048982,0.28358284853884247,-0.0009243778339442787
0.65,0.29395951961732064,0.2950481544464349,-0.0010886348291142545
0.66,0.305604308548708,0.30687521465490114,-0.001270906106193126
0.67,0.3176030103316176,0.31907344695143,-0.0014704366198123875
0.68,0.32996486199885344,0.33165672146931413,-0.0016918594704606882
0.6900000000000001,0.34270031865882483,0.3446294553949873,-0.0019291367361624623
0.7000000000000001,0.3558198287808126,0.358019172747947,-0.002199343967134393
0.7100000000000001,0.3693337768205408,0.3718183457009682,-0.002484568880427418
0.72,0.38325356863778437,0.3860604531265048,-0.002806884488720407
0.73,0.3975905869489138,0.4007421607872649,-0.003151573838351074
0.74,0.41235654009066663,0.41588242308605367,-0.0035258829953870308
0.75,0.4275630426256174,0.43149228450103067,-0.00392924187541327
0.76,0.4432233145883997,0.4475898287212101,-0.004366514132810417
0.77,0.4593487569910389,0.4641891125600409,-0.004840355569002031
0.78,0.47595378132894783,0.4813050764519137,-0.005351295122965893
0.79,0.49305139079895227,0.4989519559708386,-0.005900565171886307
0.8,0.5106548948937824,0.5171460316390496,-0.006491136745267245
0.81,0.5287789626757182,0.5359045733295416,-0.007125610653823333
0.8200000000000001,0.5474376282964716,0.5552358951632909,-0.007798266866819281
0.8300000000000001,0.5666469445799598,0.5751733623307421,-0.008526417750782334
0.8400000000000001,0.5864211749318313,0.595734983334263,-0.009313808402431678
0.85,0.6067766576048608,0.6169232701920467,-0.010146612587185966
0.86,0.6277289721407642,0.6387640134604218,-0.011035041319657601
0.87,0.6492959913629698,0.66127844290749,-0.011982451544520267
0.88,0.6714935227571188,0.6844856304775723,-0.01299210772045345
0.89,0.6943396849899521,0.7084070145568464,-0.014067329566894271
0.9,0.7178524851263031,0.7330607553188944,-0.0152082701925913
0.91,0.7420503524985751,0.7584715096590028,-0.01642115716042769
0.92,0.766951417469217,0.7846593946462799,-0.01770797717706285
0.93,0.7925758081214143,0.8116348059041417,-0.01905899778272746
0.9400000000000001,0.8189434101180514,0.8395186091486609,-0.02057519903060956
0.9500000000000001,0.8460746015983086,0.8681175243723716,-0.022042922774062945
0.9600000000000001,0.8739894191578392,0.8999874009266342,-0.025997981768794975
0.97,0.9027100993028178,0.928079988935552,-0.025369889632734233
0.98,0.9322585895876583,0.9594317651325261,-0.027173175544867867
0.99,0.9626573863312059,0.991804559358594,-0.029147173027388118
1.0,0.9939295353313333,1.025010906855566,-0.031081371524232626
1.01,1.0260976220077898,1.0600720092963902,-0.03397438728860047
1.02,1.0591878454172026,1.0946197520740817,-0.03543190665687912
1.03,1.0932228897425893,1.1291500406659847,-0.03592715092339538
1.04,1.1282291399465607,1.1684514615749177,-0.04022232162835704
1.05,1.164231401073031,1.2043997161506885,-0.0401683150776575
1.06,1.2012585454322429,1.246791058462788,-0.04553251303054506
1.07,1.2393354252497701,1.2877272351258597,-0.0483918098760896
1.08,1.2784910530954625,1.3292942763005404,-0.05080322320507791
1.09,1.3187539365824401,1.372458747797697,-0.05370481121525694
1.1,1.3601532436062178,1.4180547458295416,-0.0579015022233238
1.11,1.4027188214375768,1.4693605503965315,-0.0666417289589547
1.12,1.4464797625320978,1.511349806695595,-0.06487004416349729
1.1300000000000001,1.491470146774507,1.560116794959846,-0.06864664818533894
1.1400000000000001,1.5377189907667512,1.6103180251266307,-0.07259903435987947
1.1500000000000001,1.5852604126547514,1.6618049540814361,-0.07654454142668476
1.1600000000000001,1.6341278285722876,1.715183459743742,-0.08105563117145453
1.17,1.684355405461324,1.770003509380081,-0.0856481039187571
1.18,1.7359763462114093,1.8256610910579076,-0.08968474484649835
1.19,1.789029777212445,1.8838253542806602,-0.09479557706821518
1.2,1.8435486862660433,1.9427376829981209,-0.0991889967320776
1.21,1.8995721168673771,2.0053010751690734,-0.10572895830169626
1.22,1.9571382033578753,2.068338190183304,-0.11119998682542875
1.23,2.0162859147433503,2.133267444454634,-0.11698152971128373
1.24,2.077052996646679,2.200778632791651,-0.12372563614497212
1.25,2.1394842197579527,2.268783381897924,-0.12929916213997128
1.26,2.2036191342886924,2.3394451397893845,-0.13582600550069213
1.27,2.2694979363495387,2.412126119317935,-0.1426281829683962
1.28,2.337166124862272,2.486968532455457,-0.1498024075931852
1.29,2.4066679892357326,2.5637130185804153,-0.15704502934468278
1.3,2.4780487611442297,2.6401755926508113,-0.16212683150658158
1.31,2.55135462786872,2.7239199345210268,-0.17256530665230674
1.32,2.626632748803015,2.8037450107015967,-0.17711226189858165
1.33,2.7039312728727745,2.8924160059319366,-0.18848473305916214
1.34,2.783296577145363,2.980326717596697,-0.19703014045133393
1.35,2.864784310513423,3.072112345210892,-0.20732803469746885
1.36,2.948440045236432,3.159460307089135,-0.21102026185270306
1.37,3.0343188206442413,3.2609682649485037,-0.22664944430426237
1.3800000000000001,3.1224770879956747,3.3620269171987545,-0.23954982920307977
1.3900000000000001,3.212963127279955,3.4630111916651796,-0.25004806438522476
1.4000000000000001,3.3058354948379076,3.5642826384351474,-0.25844714359723975
1.4100000000000001,3.4011508447286234,3.6759019708741087,-0.27475112614548536
1.42,3.498963478375101,3.780268653971362,-0.2813051755962608
1.43,3.599339233858626,3.892866207481259,-0.29352697362263314
1.44,3.702334846258736,4.008173803633103,-0.3058389573743674
1.45,3.808007840408138,4.126739076147172,-0.3187312357390337
1.46,3.9164282510743944,4.248496333033635,-0.3320680819592403
1.47,4.027652131316208,4.373472935732359,-0.3458208044161504
1.48,4.141752431448955,4.502419625645379,-0.3606671941964237
1.49,4.258787281271988,4.6275602260173025,-0.36877294474531475
1.5,4.3788282702854096,4.7611788249811315,-0.382350554695722
1.51,4.501948768199304,4.907858275379663,-0.40590950718035934
1.52,4.628210118122138,5.050569755927005,-0.42235963780486685
1.53,4.757688235716067,5.195350239196741,-0.43766200348067397
1.54,4.89045603186541,5.345434074109551,-0.4549780422441412
1.55,5.026587801446615,5.499118910061564,-0.47253110861494907
1.56,5.166159240808462,5.656761895696573,-0.4906026548881117
1.57,5.309247471183343,5.818450335889014,-0.5092028647056708
1.58,5.455925609787186,5.984271699558822,-0.5283460897716363
1.59,5.6062844207004,6.154314035201176,-0.5480296145007753
1.6,5.760400109172309,6.328966798056509,-0.5685666888842
1.61,5.91835568311871,6.507134342551375,-0.5887786594326645
1.62,6.080229607616678,6.684952032645802,-0.6047224250291237
1.6300000000000001,6.2461199202673665,6.893418735577769,-0.6472988153104025
1.6400000000000001,6.4161019466527955,7.054652908638029,-0.6385509619852332
1.6500000000000001,6.59027753614581,7.258085713933811,-0.6678081777880012
1.6600000000000001,6.768724515890805,7.470807732333703,-0.7020832164428974
1.6700000000000002,6.951548657079038,7.663118597519669,-0.711569940440631
1.68,7.138830341338518,7.897616099440723,-0.7587857581022055
1.69,7.330679374250877,8.107940971745407,-0.7772615974945296
1.7,7.527178741222438,8.330833456764896,-0.803654715542458
1.71,7.728442396610583,8.556144422345797,-0.8277020257352143
1.72,7.934555978978654,8.787929139487915,-0.8533731605092605
1.73,8.14562958636781,9.033778755914652,-0.8881491695468409
1.74,8.361767578768571,9.219986390270996,-0.8582188115024252
1.75,8.583084672552626,9.537818678319464,-0.9547340057668379
1.76,8.809671917303094,9.794872770610098,-0.9852008533070045
1.77,9.041647437666764,10.052502265982765,-1.0108548283160008
1.78,9.27913212566022,10.340193529728493,-1.0610614040682727
1.79,9.522221212537525,10.594484514067986,-1.0722633015304606
1.8,9.771039108686269,10.8726186592852,-1.101579550598931
1.81,10.025703117337285,11.16568554206904,-1.1399824247317554
1.82,10.286332474287939,11.465600958456635,-1.1792684841686967
1.83,10.553058901431092,11.778762396152805,-1.2257034947217136
1.84,10.825984774115703,12.077916738698752,-1.251931964583049
1.85,11.105245510131223,12.397351204801065,-1.2921056946698428
1.86,11.390968282238944,12.726596383579661,-1.335628101340717
1.87,11.683293953512935,13.043425901821047,-1.360131948308112
1.8800000000000001,11.982330784249454,13.38614486369774,-1.4038140794482867
1.8900000000000001,12.288223474232115,13.718013224073044,-1.4297897498409284
1.9000000000000001,12.601107465968003,14.08664563237252,-1.4855381664045169
1.9100000000000001,12.921120319499712,14.445093029836368,-1.5239727103366558
1.9200000000000002,13.248414954261765,14.81087995542005,-1.5624650011582855
1.93,13.583107136679137,15.196920513913529,-1.6138133772343917
1.94,13.925353795356143,15.580270176908398,-1.6549163815522547
1.95,14.275301175681,15.979973928856266,-1.7046727531752666
1.96,14.633112348482134,16.358770816719417,-1.7256584682372829
1.97,14.99890919946701,16.792825484842567,-1.7939162853755573
1.98,15.372858941372108,17.232999018559333,-1.860140077187225
1.99,15.755132555363176,17.652550660427273,-1.897418105064098
2.0,16.145856580617956,18.092413260014634,-1.9465566793966786
2.01,16.545206236811612,18.54411043772974,-1.9989042009181262
2.02,16.953360686278273,18.998285103659956,-2.044924417381683
2.03,17.37045114499361,19.460818800237828,-2.0903676552442185
2.04,17.79667885757837,19.955282529189475,-2.158603671611104
2.05,18.23217819640071,20.441537021946875,-2.2093588255461647
2.0599999999999996,18.677156932564348,20.948755187391026,-2.271598254826678
2.07,19.13175259942559,21.446186783139673,-2.3144341837140843
2.0799999999999996,19.596179660263015,21.981095280016795,-2.38491561975378
2.09,20.070578804042906,22.515464790299887,-2.444885986256981
2.0999999999999996,20.55517136136686,23.061438209688777,-2.5062668483219177
2.11,21.050101168297854,23.618456100281854,-2.5683549319840004
2.1199999999999997,21.55559660118204,24.183183638484834,-2.6275870373027956
2.13,22.07182664000384,24.750578392446506,-2.6787517524426647
2.1399999999999997,22.59896085628962,25.373043926159436,-2.7740830698698176
2.15,23.137238471178012,25.920795209407153,-2.783556738229141
2.1599999999999997,23.68683482189471,26.571705044602005,-2.8848702227072955
2.17,24.247949919044185,27.195727047433838,-2.947777128389653
2.1799999999999997,24.820786459593194,27.846010095946763,-3.0252236363535694
2.19,25.405524527443472,28.48607148111475,-3.080546953671277
2.1999999999999997,26.00242229154608,29.146572551167154,-3.1441502596210746
2.21,26.611665882647088,29.860372216005388,-3.2487063333582995
2.2199999999999998,27.23346894469405,30.540499287977617,-3.307030343283568
2.23,27.8680479094161,31.24761588940119,-3.37956797998509
2.2399999999999998,28.515622021971723,31.9775201152126,-3.461898093240876
2.25,29.176442438814103,32.71873243918735,-3.542290000373246
2.26,29.85067662044497,33.44806239472365,-3.5973857742786812
2.27,30.53858078593501,34.22092499825465,-3.6823442123196415
2.28,31.240385640829988,34.99098961267218,-3.7506039718421924
2.29,31.95635664967418,35.80714276884117,-3.8507861191669868
2.3,32.6866674680797,36.606193666131674,-3.919526198051976
2.31,33.43158871873054,37.44812790047898,-4.016539181748442
2.32,34.19139700433118,38.28120242225346,-4.089805417922278
2.3299999999999996,34.96627050743468,39.13917266681152,-4.172902159376839
2.34,35.756526703288756,40.01385906439019,-4.257332361101433
2.3499999999999996,36.562346778695,40.92146704110218,-4.359120262407181
2.36,37.38405750391831,41.81682912954359,-4.432771625625286
2.3699999999999997,38.221881072558325,42.728994284536014,-4.507113211977689
2.38,39.07603954515657,43.68371919856804,-4.6076796534114735
2.3899999999999997,39.946874006365356,44.646915100535665,-4.7000410941703095
2.4,40.83461363662441,45.6286768432746,-4.794063206650186
2.4099999999999997,41.739528900812296,46.63147760506806,-4.891948704255768
2.42,42.661893474706424,47.62405226635631,-4.962158791649884
2.4299999999999997,43.601984272498036,48.67799922928105,-5.076014956783013
2.44,44.56008146270179,49.74136779177929,-5.181286329077501
2.4499999999999997,45.536468498096816,50.81386455851509,-5.277396060418276
2.46,46.53143213613664,51.90785255620778,-5.376420420071142
2.4699999999999998,47.54530979963422,53.006942788292456,-5.461632988658238
2.48,48.57830133688161,54.18733820840556,-5.609036871523955
2.4899999999999998,49.63074984440905,55.32497607888857,-5.694226234479515
2.5,50.703006022811415,56.48845770009462,-5.785451677283206
2.51,51.79527372519251,57.700829741485116,-5.905556016292607
2.52,52.90796204255818,58.9140535862489,-6.006091543690715
2.53,54.04127744445243,60.13750529583423,-6.096227851381798
2.54,55.195640440011445,61.39533504878926,-6.199694608777818
2.55,56.37131603151679,62.68376402450192,-6.312447992985128
2.56,57.568568224166356,63.97786438858981,-6.409296164423452
2.57,58.78783512607772,65.33989694790411,-6.552061821826392
2.5799999999999996,60.02938903875496,66.72714408840775,-6.697755049652798
2.59,61.29356199208513,68.05821777980103,-6.7646557877158955
2.5999999999999996,62.58068966709091,69.4820296481731,-6.901339981082188
2.61,63.8911114176245,70.89288604172594,-7.001774624101444
2.6199999999999997,65.22517029961038,72.35789436252614,-7.132724062915756
2.63,66.5832793153578,73.82697980987163,-7.243700494513831
2.6399999999999997,67.96565802067107,75.3378378410684,-7.372179820397335
2.65,69.372725528257,76.87355131143933,-7.5008257831823215
2.6599999999999997,70.80491037017019,78.42942753761679,-7.624517167446598
2.67,72.26243527204224,80.00842038412267,-7.745985112080433
2.6799999999999997,73.74580822447402,81.6380578416862,-7.892249617212187
2.69,75.25525395448444,83.25673151035389,-8.001477555869442
2.6999999999999997,76.79129420115831,84.92216381918013,-8.13086961802182
2.71,78.35423330294782,86.57085879331758,-8.216625490369765
2.7199999999999998,79.94437349272776,88.3316335867678,-8.38726009404003
2.73,81.56225774246454,90.08025199154376,-8.517994249079223
2.7399999999999998,83.20819778805323,91.86143908767957,-8.653241299626345
2.75,84.88258735894128,93.65313740263863,-8.770550043697355
2.76,86.58582425977852,95.4849713588061,-8.899147099027587
2.77,88.31839816206487,97.37526206760654,-9.056863905541675
2.78,90.08054146215257,99.28788825334064,-9.207346791188073
2.79,91.8727503254893,101.20009377608659,-9.327343450597283
2.8,93.6954391364349,103.20117104867653,-9.505731912241629
2.81,95.5491216155171,105.17133938781832,-9.622217772301227
2.82,97.4340325850912,107.1980292811583,-9.763996696067096
2.8299999999999996,99.35079109236143,109.26562884738408,-9.914837755022646
2.84,101.2997336759259,111.38631317756548,-10.086579501639577
2.8499999999999996,103.28119401392799,113.4942426718733,-10.213048657945308
2.86,105.29581533470797,115.65525461949825,-10.359439284790284
2.8699999999999997,107.34394181039808,117.85524581954928,-10.511304009151203
2.88,109.426022636443,120.07766917661117,-10.651646540168173
2.8899999999999997,111.54251146780958,122.35346378668135,-10.81095231887177
2.9,113.69386644963976,124.66483833170825,-10.970971882068497
2.9099999999999997,115.88055023156532,127.00121148384224,-11.120661252276918
2.92,118.10303001308529,129.41413201333606,-11.31110200025077
2.9299999999999997,120.36177755753017,131.8088706355717,-11.447093078041533
2.94,122.65739111175635,134.26007784591366,-11.602686734157302
2.9499999999999997,124.99011066271525,136.74715236772957,-11.757041705014316
2.96,127.36066749428737,139.28695956175554,-11.926292067468168
