# omega, re fxc dimensionless
1.000000000000000048e-04,9.998697538098307858e-01
1.010199019901990118e-02,9.869874698671320390e-01
2.010398039803980297e-02,9.743867945966008248e-01
3.010597059705970649e-02,9.620596323885400869e-01
4.010796079607961001e-02,9.499980228194195853e-01
5.010995099509951006e-02,9.381942149837771971e-01
6.011194119411941705e-02,9.266406912296224485e-01
7.011393139313931711e-02,9.153301747869739824e-01
8.011592159215921716e-02,9.042556302073063712e-01
9.011791179117911721e-02,8.934102601141830080e-01
1.001199019901990173e-01,8.827874999296552172e-01
1.101218921892189173e-01,8.723810114657479797e-01
1.201238823882388312e-01,8.621846758944282652e-01
1.301258725872587174e-01,8.521925864086961067e-01
1.401278627862786175e-01,8.423990407723400686e-01
1.501298529852985175e-01,8.327985338861925158e-01
1.601318431843184176e-01,8.233857504546956418e-01
1.701338333833383176e-01,8.141555578078275568e-01
1.801358235823582177e-01,8.051029989141351706e-01
1.901378137813781177e-01,7.962232856074157317e-01
2.001398039803980178e-01,7.875117920403911231e-01
2.101417941794179178e-01,7.789640483722563014e-01
2.201437843784378179e-01,7.705757346923955975e-01
2.301457745774577179e-01,7.623426751793139777e-01
2.401477647764776457e-01,7.542608324915183182e-01
2.501497549754975180e-01,7.463263023854700418e-01
2.601517451745174458e-01,7.385353085546023655e-01
2.701537353735373181e-01,7.308841976826645492e-01
2.801557255725572460e-01,7.233694347041494943e-01
2.901577157715771182e-01,7.159875982643202352e-01
3.001597059705970461e-01,7.087353763712028742e-01
3.101616961696169184e-01,7.016095622319107328e-01
3.201636863686368462e-01,6.946070502657384349e-01
3.301656765676567740e-01,6.877248322865879837e-01
3.401676667666766463e-01,6.809599938474744096e-01
3.501696569656965741e-01,6.743097107400539691e-01
3.601716471647164464e-01,6.677712456423499088e-01
3.701736373637363742e-01,6.613419449080945034e-01
3.801756275627562465e-01,6.550192354413932883e-01
3.901776177617761743e-01,6.488006220002844326e-01
4.001796079607960466e-01,6.426836838743932301e-01
4.101815981598159744e-01,6.366660726793638148e-01
4.201835883588358467e-01,6.307455095144617330e-01
4.301855785578557745e-01,6.249197825271957107e-01
4.401875687568756468e-01,6.191867445304405360e-01
4.501895589558955746e-01,6.135443107173553789e-01
4.601915491549154469e-01,6.079904564696707592e-01
4.701935393539353747e-01,6.025232152551110998e-01
4.801955295529553025e-01,5.971406766099336405e-01
4.901975197519751748e-01,5.918409842027412271e-01
5.001995099509950471e-01,5.866223339759223387e-01
5.102015001500149749e-01,5.814829723612335854e-01
5.202034903490349027e-01,5.764211945662168768e-01
5.302054805480548305e-01,5.714353429282931218e-01
5.402074707470746473e-01,5.665238053335339696e-01
5.502094609460945751e-01,5.616850136972489915e-01
5.602114511451145029e-01,5.569174425036689247e-01
5.702134413441344307e-01,5.522196074021310519e-01
5.802154315431542475e-01,5.475900638573001356e-01
5.902174217421741753e-01,5.430274058510735635e-01
6.002194119411941031e-01,5.385302646339338306e-01
6.102214021402140309e-01,5.340973075236126189e-01
6.202233923392338477e-01,5.297272368903221951e-01
6.302253825382537755e-01,5.254187884789225382e-01
6.402273727372737033e-01,5.211707311854109070e-01
6.502293629362936311e-01,5.169818654603385299e-01
6.602313531353135589e-01,5.128510224567054410e-01
6.702333433343333757e-01,5.087770630730469312e-01
6.802353335333533035e-01,5.047588770314698214e-01
6.902373237323732313e-01,5.007953819891823866e-01
7.002393139313931592e-01,4.968855226821404791e-01
7.102413041304129759e-01,4.930282700994773060e-01
7.202432943294329037e-01,4.892226206874638050e-01
7.302452845284528316e-01,4.854675955817923660e-01
7.402472747274727594e-01,4.817622398670328154e-01
7.502492649264925761e-01,4.781056218621660969e-01
7.602512551255125040e-01,4.744968324311460983e-01
7.702532453245324318e-01,4.709349843174887584e-01
7.802552355235523596e-01,4.674192115019324967e-01
7.902572257225721764e-01,4.639486685822540868e-01
8.002592159215921042e-01,4.605225301743701705e-01
8.102612061206120320e-01,4.571399903338853044e-01
8.202631963196319598e-01,4.538002619972911766e-01
8.302651865186518876e-01,4.505025764420527157e-01
8.402671767176717044e-01,4.472461827648490096e-01
8.502691669166916322e-01,4.440303473772724274e-01
8.602711571157115600e-01,4.408543535183182538e-01
8.702731473147314878e-01,4.377175007830201303e-01
8.802751375137513046e-01,4.346191046666255109e-01
8.902771277127712324e-01,4.315584961237179384e-01
9.002791179117911602e-01,4.285350210004474358e-01
9.102811081108110880e-01,4.255480401870209706e-01
9.202830983098309048e-01,4.225969283707063373e-01
9.302850885088508326e-01,4.196810742144982398e-01
9.402870787078707604e-01,4.167998798417411610e-01
9.502890689068906882e-01,4.139527604739479116e-01
9.602910591059106160e-01,4.111391440800963304e-01
9.702930493049304328e-01,4.083584710369881909e-01
9.802950395039503606e-01,4.056101938002678597e-01
9.902970297029702884e-01,4.028937765857193987e-01
1.000299019901990105e+00,4.002086950604712978e-01
1.010301010101010144e+00,3.975544360437571756e-01
1.020303000300029961e+00,3.949304972168921624e-01
1.030304990499049778e+00,3.923363868421383405e-01
1.040306980698069816e+00,3.897716234901494881e-01
1.050308970897089633e+00,3.872357357756900376e-01
1.060310961096109672e+00,3.847282621013443094e-01
1.070312951295129489e+00,3.822487504089353560e-01
1.080314941494149306e+00,3.797967579383880188e-01
1.090316931693169344e+00,3.773718509937811771e-01
1.100318921892189161e+00,3.749736047163420571e-01
1.110320912091208978e+00,3.726016028641448430e-01
1.120322902290229017e+00,3.702554375982879953e-01
1.130324892489248834e+00,3.679347092753310067e-01
1.140326882688268872e+00,3.656390262457781537e-01
1.150328872887288689e+00,3.633680046584099599e-01
1.160330863086308506e+00,3.611212682702635846e-01
1.170332853285328545e+00,3.588984482620779515e-01
1.180334843484348362e+00,3.566991830590215407e-01
1.190336833683368400e+00,3.545231181565274836e-01
1.200338823882388217e+00,3.523699059510726483e-01
1.210340814081408034e+00,3.502392055757347911e-01
1.220342804280428073e+00,3.481306827403756743e-01
1.230344794479447890e+00,3.460440095762996049e-01
1.240346784678467706e+00,3.439788644852425081e-01
1.250348774877487745e+00,3.419349319925539810e-01
1.260350765076507562e+00,3.399119026044378766e-01
1.270352755275527601e+00,3.379094726691211359e-01
1.280354745474547418e+00,3.359273442418292954e-01
1.290356735673567234e+00,3.339652249534448281e-01
1.300358725872587273e+00,3.320228278827370150e-01
1.310360716071607090e+00,3.300998714320476646e-01
1.320362706270627129e+00,3.281960792063275401e-01
1.330364696469646946e+00,3.263111798954190235e-01
1.340366686668666762e+00,3.244449071594835421e-01
1.350368676867686801e+00,3.225969995174798877e-01
1.360370667066706618e+00,3.207672002385963395e-01
1.370372657265726435e+00,3.189552572365490501e-01
1.380374647464746474e+00,3.171609229666593754e-01
1.390376637663766290e+00,3.153839543256244382e-01
1.400378627862786329e+00,3.136241125539017127e-01
1.410380618061806146e+00,3.118811631406276930e-01
1.420382608260825963e+00,3.101548757309964266e-01
1.430384598459846002e+00,3.084450240360222528e-01
1.440386588658865819e+00,3.067513857446189651e-01
1.450388578857885857e+00,3.050737424379244556e-01
1.460390569056905674e+00,3.034118795058065032e-01
1.470392559255925491e+00,3.017655860654848143e-01
1.480394549454945530e+00,3.001346548822075300e-01
1.490396539653965347e+00,2.985188822919233043e-01
1.500398529852985163e+00,2.969180681258898891e-01
1.510400520052005202e+00,2.953320156371647687e-01
1.520402510251025019e+00,2.937605314289224445e-01
1.530404500450045058e+00,2.922034253845466889e-01
1.540406490649064875e+00,2.906605105994473082e-01
1.550408480848084691e+00,2.891316033145520104e-01
1.560410471047104730e+00,2.876165228514258598e-01
1.570412461246124547e+00,2.861150915489734103e-01
1.580414451445144364e+00,2.846271347016776088e-01
1.590416441644164403e+00,2.831524804993334476e-01
1.600418431843184219e+00,2.816909599682345111e-01
1.610420422042204258e+00,2.802424069137716134e-01
1.620422412241224075e+00,2.788066578644055049e-01
1.630424402440243892e+00,2.773835520169737889e-01
1.640426392639263931e+00,2.759729311832986864e-01
1.650428382838283747e+00,2.745746397380555703e-01
1.660430373037303786e+00,2.731885245678722374e-01
1.670432363236323603e+00,2.718144350216227245e-01
1.680434353435343420e+00,2.704522228618847501e-01
1.690436343634363459e+00,2.691017422175278062e-01
1.700438333833383275e+00,2.677628495374042017e-01
1.710440324032403092e+00,2.664354035451098612e-01
1.720442314231423131e+00,2.651192651947900658e-01
1.730444304430442948e+00,2.638142976279601037e-01
1.740446294629462987e+00,2.625203661313139647e-01
1.750448284828482803e+00,2.612373380954963187e-01
1.760450275027502620e+00,2.599650829748110237e-01
1.770452265226522659e+00,2.587034722478425142e-01
1.780454255425542476e+00,2.574523793789664228e-01
1.790456245624562515e+00,2.562116797807247881e-01
1.800458235823582331e+00,2.549812507770456427e-01
1.810460226022602148e+00,2.537609715672828337e-01
1.820462216221622187e+00,2.525507231910572581e-01
1.830464206420642004e+00,2.513503884938769195e-01
1.840466196619661821e+00,2.501598520935174874e-01
1.850468186818681859e+00,2.489790003471424595e-01
1.860470177017701676e+00,2.478077213191459127e-01
1.870472167216721715e+00,2.466459047496974422e-01
1.880474157415741532e+00,2.454934420239741621e-01
1.890476147614761349e+00,2.443502261420596733e-01
1.900478137813781387e+00,2.432161516894955910e-01
1.910480128012801204e+00,2.420911148084678999e-01
1.920482118211821243e+00,2.409750131696132558e-01
1.930484108410841060e+00,2.398677459444293336e-01
1.940486098609860877e+00,2.387692137782742585e-01
1.950488088808880915e+00,2.376793187639410221e-01
1.960490079007900732e+00,2.365979644157923389e-01
1.970492069206920549e+00,2.355250556444425380e-01
1.980494059405940588e+00,2.344604987319729716e-01
1.990496049604960405e+00,2.334042013076681743e-01
2.000498039803980443e+00,2.323560723242594772e-01
2.010500030003000482e+00,2.313160220346651141e-01
2.020502020202020521e+00,2.302839619692134132e-01
2.030504010401040116e+00,2.292598049133389160e-01
2.040506000600060155e+00,2.282434648857380177e-01
2.050507990799080194e+00,2.272348571169765796e-01
2.060509980998099788e+00,2.262338980285345802e-01
2.070511971197119827e+00,2.252405052122812001e-01
2.080513961396139866e+00,2.242545974103675177e-01
2.090515951595159905e+00,2.232760944955287374e-01
2.100517941794179499e+00,2.223049174517852666e-01
2.110519931993199538e+00,2.213409883555338686e-01
2.120521922192219577e+00,2.203842303570192340e-01
2.130523912391239172e+00,2.194345676621783925e-01
2.140525902590259211e+00,2.184919255148472239e-01
2.150527892789279250e+00,2.175562301793233233e-01
2.160529882988298844e+00,2.166274089232743116e-01
2.170531873187318883e+00,2.157053900009859027e-01
2.180533863386338922e+00,2.147901026369405941e-01
2.190535853585358517e+00,2.138814770097202111e-01
2.200537843784378556e+00,2.129794442362241969e-01
2.210539833983398594e+00,2.120839363561971280e-01
2.220541824182418189e+00,2.111948863170585167e-01
2.230543814381438228e+00,2.103122279590271537e-01
2.240545804580458267e+00,2.094358960005347492e-01
2.250547794779478306e+00,2.085658260239213746e-01
2.260549784978497900e+00,2.077019544614066016e-01
2.270551775177517939e+00,2.068442185813305356e-01
2.280553765376537978e+00,2.059925564746585558e-01
2.290555755575557573e+00,2.051469070417437923e-01
2.300557745774577612e+00,2.043072099793419305e-01
2.310559735973597650e+00,2.034734057678724006e-01
2.320561726172617245e+00,2.026454356589214023e-01
2.330563716371637284e+00,2.018232416629798243e-01
2.340565706570657323e+00,2.010067665374134505e-01
2.350567696769676918e+00,2.001959537746572926e-01
2.360569686968696956e+00,1.993907475906323279e-01
2.370571677167716995e+00,1.985910929133774538e-01
2.380573667366737034e+00,1.977969353718931622e-01
2.390575657565756629e+00,1.970082212851924641e-01
2.400577647764776668e+00,1.962248976515537091e-01
2.410579637963796706e+00,1.954469121379722729e-01
2.420581628162816301e+00,1.946742130698056183e-01
2.430583618361836340e+00,1.939067494206086206e-01
2.440585608560856379e+00,1.931444708021545775e-01
2.450587598759875974e+00,1.923873274546381296e-01
2.460589588958896012e+00,1.916352702370560102e-01
2.470591579157916051e+00,1.908882506177627947e-01
2.480593569356935646e+00,1.901462206651968190e-01
2.490595559555955685e+00,1.894091330387730754e-01
2.500597549754975724e+00,1.886769409799403663e-01
2.510599539953995762e+00,1.879495983033983852e-01
2.520601530153015357e+00,1.872270593884716172e-01
2.530603520352035396e+00,1.865092791706371156e-01
2.540605510551055435e+00,1.857962131332029088e-01
2.550607500750075030e+00,1.850878172991336501e-01
2.560609490949095068e+00,1.843840482230209021e-01
2.570611481148115107e+00,1.836848629831947799e-01
2.580613471347134702e+00,1.829902191739743167e-01
2.590615461546154741e+00,1.823000748980533881e-01
2.600617451745174780e+00,1.816143887590202510e-01
2.610619441944194374e+00,1.809331198540066743e-01
2.620621432143214413e+00,1.802562277664655488e-01
2.630623422342234452e+00,1.795836725590730376e-01
2.640625412541254491e+00,1.789154147667541273e-01
2.650627402740274086e+00,1.782514153898277776e-01
2.660629392939294124e+00,1.775916358872697831e-01
2.670631383138314163e+00,1.769360381700923468e-01
2.680633373337333758e+00,1.762845845948352030e-01
2.690635363536353797e+00,1.756372379571688735e-01
2.700637353735373836e+00,1.749939614856063086e-01
2.710639343934393430e+00,1.743547188353212762e-01
2.720641334133413469e+00,1.737194740820711958e-01
2.730643324332433508e+00,1.730881917162225281e-01
2.740645314531453103e+00,1.724608366368769741e-01
2.750647304730473142e+00,1.718373741460956228e-01
2.760649294929493180e+00,1.712177699432205769e-01
2.770651285128513219e+00,1.706019901192905586e-01
2.780653275327532814e+00,1.699900011515500797e-01
2.790655265526552853e+00,1.693817698980495667e-01
2.800657255725572892e+00,1.687772635923347475e-01
2.810659245924592486e+00,1.681764498382242179e-01
2.820661236123612525e+00,1.675792966046724952e-01
2.830663226322632564e+00,1.669857722207179485e-01
2.840665216521652159e+00,1.663958453705131901e-01
2.850667206720672198e+00,1.658094850884370142e-01
2.860669196919692236e+00,1.652266607542857979e-01
2.870671187118711831e+00,1.646473420885431749e-01
2.880673177317731870e+00,1.640714991477265350e-01
2.890675167516751909e+00,1.634991023198085758e-01
2.900677157715771948e+00,1.629301223197134607e-01
2.910679147914791542e+00,1.623645301848841704e-01
2.920681138113811581e+00,1.618022972709222684e-01
2.930683128312831620e+00,1.612433952472971388e-01
2.940685118511851215e+00,1.606877960931232807e-01
2.950687108710871254e+00,1.601354720930057707e-01
2.960689098909891293e+00,1.595863958329508947e-01
2.970691089108910887e+00,1.590405401963422283e-01
2.980693079307930926e+00,1.584978783599801655e-01
2.990695069506950965e+00,1.579583837901836763e-01
3.000697059705970560e+00,1.574220302389542081e-01
3.010699049904990598e+00,1.568887917401986243e-01
3.020701040104010637e+00,1.563586426060123991e-01
3.030703030303030232e+00,1.558315574230202394e-01
3.040705020502050271e+00,1.553075110487737720e-01
3.050707010701070310e+00,1.547864786082057409e-01
3.060709000900090349e+00,1.542684354901384391e-01
3.070710991099109943e+00,1.537533573438468193e-01
3.080712981298129982e+00,1.532412200756740062e-01
3.090714971497150021e+00,1.527319998456996564e-01
3.100716961696169616e+00,1.522256730644587497e-01
3.110718951895189655e+00,1.517222163897110065e-01
3.120720942094209693e+00,1.512216067232599881e-01
3.130722932293229288e+00,1.507238212078198525e-01
3.140724922492249327e+00,1.502288372239305170e-01
3.150726912691269366e+00,1.497366323869193661e-01
3.160728902890288960e+00,1.492471845439089506e-01
3.170730893089308999e+00,1.487604717708698177e-01
3.180732883288329038e+00,1.482764723697176934e-01
3.190734873487349077e+00,1.477951648654546035e-01
3.200736863686368672e+00,1.473165280033524871e-01
3.210738853885388711e+00,1.468405407461790269e-01
3.220740844084408749e+00,1.463671822714651682e-01
3.230742834283428344e+00,1.458964319688128009e-01
3.240744824482448383e+00,1.454282694372429074e-01
3.250746814681468422e+00,1.449626744825827651e-01
3.260748804880488017e+00,1.444996271148917544e-01
3.270750795079508055e+00,1.440391075459251935e-01
3.280752785278528094e+00,1.435810961866355873e-01
3.290754775477547689e+00,1.431255736447104021e-01
3.300756765676567728e+00,1.426725207221458402e-01
3.310758755875587767e+00,1.422219184128563629e-01
3.320760746074607805e+00,1.417737479003188805e-01
3.330762736273627400e+00,1.413279905552509985e-01
3.340764726472647439e+00,1.408846279333234031e-01
3.350766716671667478e+00,1.404436417729049702e-01
3.360768706870687073e+00,1.400050139928408488e-01
3.370770697069707111e+00,1.395687266902619350e-01
3.380772687268727150e+00,1.391347621384265987e-01
3.390774677467746745e+00,1.387031027845928854e-01
3.400776667666766784e+00,1.382737312479211944e-01
3.410778657865786823e+00,1.378466303174072372e-01
3.420780648064806417e+00,1.374217829498440846e-01
3.430782638263826456e+00,1.369991722678134405e-01
3.440784628462846495e+00,1.365787815577051423e-01
3.450786618661866534e+00,1.361605942677650838e-01
3.460788608860886129e+00,1.357445940061703660e-01
3.470790599059906167e+00,1.353307645391316760e-01
3.480792589258926206e+00,1.349190897890224783e-01
3.490794579457945801e+00,1.345095538325342677e-01
3.500796569656965840e+00,1.341021408988576080e-01
3.510798559855985879e+00,1.336968353678889831e-01
3.520800550055005473e+00,1.332936217684619618e-01
3.530802540254025512e+00,1.328924847766037032e-01
3.540804530453045551e+00,1.324934092138149999e-01
3.550806520652065146e+00,1.320963800453744952e-01
3.560808510851085185e+00,1.317013823786664650e-01
3.570810501050105223e+00,1.313084014615310824e-01
3.580812491249125262e+00,1.309174226806380792e-01
3.590814481448144857e+00,1.305284315598821132e-01
3.600816471647164896e+00,1.301414137588004505e-01
3.610818461846184935e+00,1.297563550710122970e-01
3.620820452045204529e+00,1.293732414226793637e-01
3.630822442244224568e+00,1.289920588709868587e-01
3.640824432443244607e+00,1.286127936026462693e-01
3.650826422642264202e+00,1.282354319324172098e-01
3.660828412841284241e+00,1.278599603016499220e-01
3.670830403040304279e+00,1.274863652768473965e-01
3.680832393239323874e+00,1.271146335482466749e-01
3.690834383438343913e+00,1.267447519284191360e-01
3.700836373637363952e+00,1.263767073508899885e-01
3.710838363836383991e+00,1.260104868687756119e-01
3.720840354035403585e+00,1.256460776534396862e-01
3.730842344234423624e+00,1.252834669931666978e-01
3.740844334433443663e+00,1.249226422918535417e-01
3.750846324632463258e+00,1.245635910677180547e-01
3.760848314831483297e+00,1.242063009520250616e-01
3.770850305030503336e+00,1.238507596878287154e-01
3.780852295229522930e+00,1.234969551287322248e-01
3.790854285428542969e+00,1.231448752376628486e-01
3.800856275627563008e+00,1.227945080856639726e-01
3.810858265826582603e+00,1.224458418507023000e-01
3.820860256025602641e+00,1.220988648164910290e-01
3.830862246224622680e+00,1.217535653713282262e-01
3.840864236423642719e+00,1.214099320069502996e-01
3.850866226622662314e+00,1.210679533174005285e-01
3.860868216821682353e+00,1.207276179979119568e-01
3.870870207020702392e+00,1.203889148438052475e-01
3.880872197219721986e+00,1.200518327494001225e-01
3.890874187418742025e+00,1.197163607069413466e-01
3.900876177617762064e+00,1.193824878055383815e-01
3.910878167816781659e+00,1.190502032301185564e-01
3.920880158015801698e+00,1.187194962603935616e-01
3.930882148214821736e+00,1.183903562698395140e-01
3.940884138413841331e+00,1.180627727246897074e-01
3.950886128612861370e+00,1.177367351829401998e-01
3.960888118811881409e+00,1.174122332933683899e-01
3.970890109010901003e+00,1.170892567945634039e-01
3.980892099209921042e+00,1.167677955139693746e-01
