q/kF, < omega_p(q)**3 >/wp(0)**3, Sum rule/wp(0)**3, < (omega/wp(0))**3*S > - SR
0.01,2.403692432440373e-05,1.9412048118881895e-05,4.624876205521836e-06
0.02,7.769048133114828e-05,7.764868006274148e-05,4.180126840679023e-08
0.03,0.00017469599197744465,0.00017471105163048136,-1.5059653036707168e-08
0.04,0.00031054024065209736,0.00031060040092746827,-6.016027537090627e-08
0.05,0.0004852032414056411,0.0004848965113693403,3.067300363008272e-07
0.060000000000000005,0.0006986640854111881,0.000698120595595674,5.43489815514088e-07
0.06999999999999999,0.0009509182223235684,0.0009500364476921554,8.817746314130443e-07
0.08,0.0012419591698538894,0.001240617386114221,1.3417837396684056e-06
0.09,0.0015717820295528461,0.0015698357266031515,1.946302949694693e-06
0.09999999999999999,0.0019403763089788138,0.0019376632645041986,2.7130444746152876e-06
0.11,0.0023477373996891888,0.0023440720447136334,3.6653549755553787e-06
0.12,0.00279385535049451,0.0027918973672730733,1.957983221436907e-06
0.13,0.0032787213103323523,0.0032759987526782054,2.7225576541469593e-06
0.14,0.0038023259727600995,0.0037986549189925355,3.6710537675639816e-06
0.15000000000000002,0.004364664036373932,0.004359834241860085,4.829794513847539e-06
0.16,0.0049657223539288356,0.0049595041655192285,6.218188409607035e-06
0.17,0.005605496340689994,0.0055976313299628995,7.865010727094689e-06
0.18000000000000002,0.0062839775405014115,0.006274181683478046,9.795857023365412e-06
0.19,0.007001150472220388,0.006989120675969092,1.2029796251296007e-05
0.2,0.00775701974226832,0.0077424130345889845,1.4606707679335612e-05
0.21000000000000002,0.008551561854578851,0.008534022928187718,1.7538926391133178e-05
0.22,0.009384774727670226,0.009363914038505594,2.086068916463263e-05
0.23,0.01025664897564579,0.010232048626955051,2.46003486907391e-05
0.24000000000000002,0.011167174723952508,0.011138386993713747,2.878773023876069e-05
0.25,0.012116341418240344,0.012082887214662807,3.345420357753724e-05
0.26,0.013104150660878933,0.013065505060333531,3.864560054540195e-05
0.27,0.014130564806939083,0.014086193583066718,4.437122387236474e-05
0.28,0.01519559711742588,0.01514490316469646,5.069395272941889e-05
0.29000000000000004,0.01629923537278429,0.016241581164432334,5.765420835195448e-05
0.3,0.01744143107863362,0.01737617117700751,6.525990162611212e-05
0.31,0.01862219882944026,0.018548615239292226,7.35835901480332e-05
0.32,0.019841521236698762,0.019758854446822006,8.266678987675635e-05
0.33,0.02109935812538237,0.021006831943267287,9.252618211508246e-05
0.34,0.02239570719245978,0.022292491779633872,0.00010321541282590913
0.35000000000000003,0.023730522512060814,0.023615781432156355,0.00011474107990445959
0.36000000000000004,0.025103801622168718,0.024976651971343695,0.00012714965082502236
0.37,0.026515520322706144,0.0263750551072501,0.0001404652154560447
0.38,0.027965626341679633,0.027810947455541333,0.0001546788861383
0.39,0.02945412045745914,0.0292842888768603,0.0001698315805988386
0.4,0.030980979328406266,0.0307950434723835,0.00018593585602276474
0.41000000000000003,0.03254614868882629,0.03234317849055913,0.00020297019826716334
0.42000000000000004,0.03414963794186069,0.0339286627794407,0.00022097516241999238
0.43,0.03579142980383059,0.035551474093660926,0.00023995571016966616
0.44,0.037471510096346604,0.03721159645012851,0.00025991364621809343
0.45,0.03918986819053045,0.03890902069524528,0.0002808474952851678
0.46,0.04094645663214179,0.04064374863613325,0.0003027079960085388
0.47000000000000003,0.04274135273738069,0.04241578963128811,0.0003255631060925801
0.48000000000000004,0.04457447508118273,0.04422515887260262,0.00034931620858010687
0.49,0.04644587084286462,0.04607188456106642,0.00037398628179819565
0.5,0.048355551066172016,0.04795600921044842,0.00039954185572359247
0.51,0.050303531397913104,0.050008473551527384,0.0002950578463857198
0.52,0.052289779987668615,0.05197998814508828,0.0003097918425803356
0.53,0.05431442361137997,0.05398920455520595,0.0003252190561740184
0.54,0.056377384950415055,0.05603610081838063,0.0003412841320344223
0.55,0.05847880746416547,0.05812067733335301,0.0003581301308124632
0.56,0.060618613749622734,0.06024293862572612,0.0003756751238966141
0.5700000000000001,0.06279696355352614,0.062402872930069665,0.00039409062345647367
0.5800000000000001,0.06501377864256681,0.06460045723952787,0.0004133214030389437
0.59,0.06726916775100092,0.06683566739135757,0.0004335003596433462
0.6,0.06956325213465311,0.06910848905788673,0.00045476307676638184
0.61,0.07189595098778517,0.07141894045165034,0.0004770105361348309
0.62,0.07426739024091322,0.07351326928354027,0.0007541209573729557
0.63,0.07667763237025049,0.07589212439376088,0.0007855079764896161
0.64,0.0791267434255425,0.07830994277710335,0.000816800648439156
0.65,0.08161479311861139,0.08076690265276833,0.0008478904658430625
0.66,0.08414185494558733,0.08326319522449713,0.0008786597210902053
0.67,0.08670800634122963,0.08579902803125952,0.0009089783099701099
0.68,0.08931332886307296,0.08837463053633982,0.0009386983267331422
0.6900000000000001,0.0919579084036482,0.09099025387127894,0.0009676545323692581
0.7000000000000001,0.09464183542844723,0.09364617031307569,0.0009956651153715385
0.7100000000000001,0.09736520523738915,0.09634266932828393,0.0010225359091052127
0.72,0.100128118246751,0.09908005179907166,0.0010480664476793383
0.73,0.1029306802919313,0.10185864026997231,0.0010720400219589865
0.74,0.10577300294580917,0.1046787754616084,0.001094227484200766
0.75,0.10865520385391175,0.10754082015494315,0.0011143836989686018
0.76,0.11157740708297645,0.11044516266077653,0.0011322444221999184
0.77,0.11453974348304724,0.11339220833506351,0.0011475351479837276
0.78,0.11754235106025224,0.11638237208045624,0.0011599789797960003
0.79,0.12058537536132491,0.11941607692267756,0.0011692984386473537
0.8,0.12366884673165814,0.12249378370624114,0.001175063025416992
0.81,0.12679317019941264,0.12561598480205974,0.0011771853973528978
0.8200000000000001,0.1299583962214364,0.12878319612565364,0.001175200095782758
0.8300000000000001,0.1331647045368848,0.13199596738013403,0.001168737156750782
0.8400000000000001,0.13641228448435533,0.1352548858796078,0.0011573986047475338
0.85,0.1397013354406987,0.13856056943080036,0.0011407660098983474
0.86,0.14303206726443576,0.14191364698252326,0.0011184202819125022
0.87,0.1464047007516081,0.14531478267443984,0.001089918077168267
0.88,0.14981946809722269,0.14876466743745875,0.0010548006597639326
0.89,0.1532766133669936,0.1522640232766198,0.0010125900903737994
0.9,0.15677639297659707,0.1558136242262164,0.000962768750380677
0.91,0.16031907618142482,0.15941427289356014,0.0009048032878646861
0.92,0.16390494557684937,0.16306681494017883,0.0008381306366705421
0.93,0.16753429760151803,0.16677213037704067,0.0007621672244773614
0.9400000000000001,0.17120727263572327,0.17053111645336017,0.0006761561823631079
0.9500000000000001,0.17492453357744675,0.17434471924072523,0.0005798143367215236
0.9600000000000001,0.17868625475782848,0.17821392647676956,0.0004723282810589202
0.97,0.18249279330673102,0.1821397577890497,0.000353035517681316
0.98,0.1863445229124448,0.18612329022695043,0.00022123268549437136
0.99,0.19024183438995135,0.19016565502392077,7.617936603057651e-05
1.0,0.19418513628224532,0.19426800566621497,-8.286938396964705e-05
1.01,0.1981748554524688,0.1984315443764493,-0.00025668892398050813
1.02,0.20221143770612734,0.20265749755597628,-0.00044605984984893987
1.03,0.2062953484249709,0.2069470911504835,-0.0006517427255125774
1.04,0.21042707320375775,0.21130159080388838,-0.000874517600130631
1.05,0.2146071185246686,0.21572229667833037,-0.0011151781536617722
1.06,0.21883601241141656,0.2202105300102139,-0.0013745175987973368
1.07,0.22311430514920447,0.2247676495387231,-0.0016533443895186406
1.08,0.2274425699540692,0.22939505188902756,-0.0019524819349583666
1.09,0.23182140373640403,0.23409412958988335,-0.002272725853479318
1.1,0.23625142780457906,0.2388663143685826,-0.002614886564003549
1.11,0.24073328864139837,0.2437130885120978,-0.0029797998706994344
1.12,0.24526765867138917,0.24863601602476393,-0.0033683573533747624
1.1300000000000001,0.2498554857375343,0.2536367324550077,-0.0037812467174733744
1.1400000000000001,0.2544970038145519,0.25871692284565223,-0.004219919031100305
1.1500000000000001,0.25919321203147916,0.2638783105295267,-0.004685098498047546
1.1600000000000001,0.2639448946418221,0.2691226592061225,-0.005177764564300413
1.17,0.2687528659417055,0.2744517743935054,-0.005698908451799878
1.18,0.27361797117718956,0.2798675169669413,-0.0062495457897517315
1.19,0.2785410874127523,0.2853718072807355,-0.006830719867983226
1.2,0.28352312444461747,0.2909666295421473,-0.0074435050975298345
1.21,0.2885650257271122,0.2966540695221542,-0.008089043795041995
1.22,0.29366776933622724,0.3024363002248112,-0.00876853088858398
1.23,0.2988323689122927,0.3083155760853318,-0.009483207173039077
1.24,0.30405987462168005,0.31429426455568765,-0.010234389934007604
1.25,0.3093513741989543,0.32037479350367837,-0.011023419304724058
1.26,0.3147079939246606,0.326559662685522,-0.011851668760861411
1.27,0.3201308996651009,0.3328514352138627,-0.012720535548761791
1.28,0.32562129787476807,0.3392527218626661,-0.013631423987898017
1.29,0.33118043671800673,0.345766186256651,-0.014585749538644277
1.3,0.3368099423375477,0.3523945504437536,-0.015584608106205933
1.31,0.3425104848864952,0.3591405954713533,-0.016630110584858082
1.32,0.3482837735864981,0.3660071636343534,-0.017723390047855336
1.33,0.35413123424778126,0.37299720093980754,-0.01886596669202628
1.34,0.36005433982851687,0.38011377309045286,-0.02005943326193599
1.35,0.3660546117498856,0.38736001371264733,-0.02130540196276176
1.36,0.3721336207851868,0.39473906788630686,-0.022605447101120058
1.37,0.37829298850123355,0.40225406222234367,-0.023961073721110115
1.3800000000000001,0.38453438833607145,0.40990817217043946,-0.025373783834368002
1.3900000000000001,0.3908595466843496,0.4177046210681255,-0.026845074383775924
1.4000000000000001,0.39727024440921516,0.4256466868250032,-0.028376442415788017
1.4100000000000001,0.40376831739358776,0.43373770149053936,-0.0299693840969516
1.42,0.41035565885693653,0.44198110654578815,-0.031625447688851616
1.43,0.417034219374891,0.4503804525538499,-0.033346233178958906
1.44,0.42380600903886134,0.4589393310461211,-0.03513332200725977
1.45,0.4306730982491994,0.4676613205574841,-0.03698822230828469
1.46,0.43763761901364884,0.4765499681712053,-0.03891234915755648
1.47,0.44470176663163197,0.48560890371848325,-0.040907137086851286
1.48,0.45186779992807,0.49484191448753295,-0.04297411455946293
1.49,0.459138500322511,0.5042529318828713,-0.045114431560360324
1.5,0.4665153541782407,0.5138459832871419,-0.047330629108901234
1.51,0.47400126980899565,0.523625172515674,-0.049623902706678324
1.52,0.48159877558763114,0.5335947134659822,-0.05199593787835105
1.53,0.4893104721844557,0.5437589452288056,-0.05444847304434991
1.54,0.4971390294602342,0.5541222900033329,-0.05698326054309871
1.55,0.5050871942081604,0.5646892501522947,-0.05960205594413426
1.56,0.5131577830451661,0.5754643907390422,-0.06230660769387608
1.57,0.5213536934841075,0.5864523648862283,-0.06509867140212078
1.58,0.5296778950096463,0.5976581420889789,-0.06798024707933259
1.59,0.5381334383084738,0.6090869616866602,-0.07095352337818639
1.6,0.5467234572529448,0.6207441610062626,-0.07402070375331782
1.61,0.555450603266971,0.6326351736467068,-0.0771845703797358
1.62,0.5643192773720798,0.6447655252373278,-0.08044624786524801
1.6300000000000001,0.5733322940145296,0.6571408498044894,-0.08380855578995983
1.6400000000000001,0.582493132658793,0.6697668046708977,-0.08727367201210467
1.6500000000000001,0.5918053639703691,0.6826490647949186,-0.09084370082454951
1.6600000000000001,0.6012725566781706,0.6957933934624768,-0.09452083678430623
1.6700000000000002,0.6108984765814438,0.7092056000317214,-0.09830712345027759
1.68,0.6206869416583909,0.7228914968862504,-0.10220455522785954
1.69,0.6306418480704071,0.7368568726640907,-0.1062150245936836
1.7,0.640767190379664,0.7511075821757284,-0.11034039179606436
1.71,0.6510670665128795,0.7656497035447957,-0.11458263703191618
1.72,0.6615456535033317,0.7804894599689438,-0.11894380646561209
1.73,0.6722072442860672,0.7956330956385466,-0.12342585135247941
1.74,0.683056209184065,0.8110867745993644,-0.12803056541529945
1.75,0.6940970334053879,0.8268567810365893,-0.13275974763120146
1.76,0.7053335881265285,0.8429495441437116,-0.13761595601718313
1.77,0.7167719493471802,0.8593716311559307,-0.1425996818087505
1.78,0.7284162034428863,0.8761297925579625,-0.14771358911507626
1.79,0.7402712353909873,0.8932309032028167,-0.15295966781182946
1.8,0.752342036439355,0.9106819978472538,-0.15833996140789874
1.81,0.7646337024347616,0.9284902314219977,-0.16385652898723613
1.82,0.7771514314888254,0.9466628575536249,-0.16951142606479952
1.83,0.7899005374786359,0.9652071804705713,-0.17530664299193544
1.84,0.802885639329723,0.9841305871069421,-0.1812449477772191
1.85,0.8161138499958279,1.0034407149187696,-0.1873268649229417
1.86,0.8295900252250186,1.023145323871724,-0.1935552986467055
1.87,0.8433199187829735,1.0432522490926848,-0.19993233030971125
1.8800000000000001,0.8573093970638147,1.0637693295842452,-0.2064599325204305
1.8900000000000001,0.8715644417543611,1.0847044649239475,-0.21314002316958636
1.9000000000000001,0.8860911515915101,1.10606564272277,-0.21997449113125989
1.9100000000000001,0.9008948458789554,1.127860926526294,-0.22696608064733859
1.9200000000000002,0.9159836328099453,1.1500984955969995,-0.23411486278705418
1.93,0.9313630828874481,1.1727866907237328,-0.2414236078362847
1.94,0.947039767095628,1.1959339710391295,-0.24889420394350148
1.95,0.9630203788191438,1.2195490406584368,-0.256528661839293
1.96,0.9793117320704813,1.243640937508445,-0.2643292054379637
1.97,0.9959207654269188,1.268218876096558,-0.27229811066963927
1.98,1.0128535356265957,1.2932921134842088,-0.28043857785761306
1.99,1.0301192234420438,1.3188700309478263,-0.2887508075057825
2.0,1.047724152334165,1.3449623385233656,-0.2972381861892006
2.01,1.0656757629797236,1.3715791233844812,-0.30590336040475763
2.02,1.0839816226014038,1.3987305877754115,-0.31474896517400763
2.03,1.1026494287288633,1.4264269041216249,-0.3237774753927616
2.04,1.1216858944026888,1.45467832892366,-0.33299243452097116
2.05,1.1411011857036981,1.4834952327228883,-0.3423940470191902
2.0599999999999996,1.160902296930623,1.5128880088200438,-0.35198571188942074
2.07,1.1810974486984585,1.5428669743435997,-0.3617695256451412
2.0799999999999996,1.2016949974611981,1.573442515707506,-0.3717475182463079
2.09,1.2227034320293422,1.604625115052709,-0.38192168302336693
2.0999999999999996,1.2441313778085226,1.6364253385867715,-0.39229396077824896
2.11,1.2659875955942672,1.6688535745822362,-0.40286597898796894
2.1199999999999997,1.2882797062204845,1.7019201769513563,-0.41364047073087185
2.13,1.311019279579887,1.735635786446686,-0.4246165068667991
2.1399999999999997,1.3342142329106559,1.7700114445864699,-0.435797211675814
2.15,1.3578738805198283,1.8050583959162487,-0.44718451539642046
2.1599999999999997,1.3820076775077177,1.840787889579885,-0.45878021207216735
2.17,1.406625219065075,1.8772112362531597,-0.4705860171880847
2.1799999999999997,1.431736242946077,1.9143399028544401,-0.4826036599083632
2.19,1.457350629393936,1.952185450726186,-0.49483482133225
2.1999999999999997,1.4834784030439738,1.9907595547317434,-0.5072811516877695
2.21,1.5101297319059241,2.030074044950193,-0.5199443130442687
2.2199999999999998,1.5373149298078697,2.0701411790240463,-0.5328262492161766
2.23,1.5650444568548876,2.11097367472079,-0.5459292178659023
2.2399999999999998,1.5933289188719995,2.152584486566622,-0.5592555676946227
2.25,1.6221774623254335,2.1949867660069025,-0.572809303681469
2.26,1.6516041760359224,2.2381938370938212,-0.5865896610578989
2.27,1.6816185325078055,2.2822191471385183,-0.6006006146307128
2.28,1.7122317322500407,2.327076126018798,-0.6148443937687573
2.29,1.7434551267672498,2.372778240079604,-0.6293231133123542
2.3,1.7753019793479667,2.419338930376984,-0.6440369510290174
2.31,1.8077804585135144,2.4667714650041317,-0.6589910064906173
2.32,1.840904100242445,2.515089244321231,-0.6741851440787858
2.3299999999999996,1.8746848659043531,2.564306004770503,-0.6896211388661497
2.34,1.9091348716619643,2.6144358201251303,-0.705300948463166
2.3499999999999996,1.9442663884988745,2.6654930229566927,-0.7212266344578182
2.36,1.9800918432237127,2.7174920285887514,-0.7374001853650387
2.3699999999999997,2.0166238192548,2.7704474036103846,-0.7538235843555845
2.38,2.053875057244521,2.824373873533699,-0.7704988162891784
2.3899999999999997,2.091858456428739,2.879286294293626,-0.7874278378648869
2.4,2.130587073633028,2.935199623876221,-0.8046125502431929
2.4099999999999997,2.1700762770171154,2.9921289619819893,-0.8220526849648739
2.42,2.2103351857674904,3.0500896064671776,-0.8397544206996872
2.4299999999999997,2.251379446090984,3.109096983832391,-0.857717537741407
2.44,2.293222758237406,3.169166688985037,-0.8759439307476313
2.4499999999999997,2.3358789845183896,3.2303144051262036,-0.894435420607814
2.46,2.379364510630811,3.292555734293724,-0.9131912236629134
2.4699999999999998,2.4236888568850388,3.355906272578089,-0.9322174156930503
2.48,2.4688686884928934,3.4203816811958223,-0.9515129927029289
2.4899999999999998,2.5149210147983325,3.4859976866556295,-0.971076671857297
2.5,2.5618555979698825,3.552770172025668,-0.9909145740557856
2.51,2.6096897278125826,3.6207152121893333,-1.0110254843767508
2.52,2.6584410549018775,3.689849089540566,-1.0314080346386882
2.53,2.7081195697907874,3.7601883360998447,-1.0520687663090573
2.54,2.7587432023458147,3.831749697015673,-1.0730064946698583
2.55,2.81033026669889,3.9045501220417607,-1.0942198553428706
2.56,2.8628909600115517,3.978606862325012,-1.1157159023134602
2.57,2.9164467596969446,4.0539376479153955,-1.137490888218451
2.5799999999999996,2.9710080117099307,4.1305608952732795,-1.1595528835633488
2.59,3.026593750847872,4.208495559715773,-1.1819018088679014
2.5999999999999996,3.083223433467166,4.287760956684763,-1.204537523217597
2.61,3.14090757694626,4.36837671764273,-1.2274691406964697
2.6199999999999997,3.1996690939108268,4.450362622268147,-1.2506935283573206
2.63,3.259521847612536,4.533738422456953,-1.2742165748444165
2.6399999999999997,3.320479679704061,4.618524068276878,-1.298044388572817
2.65,3.3825663556328665,4.704739704287547,-1.322173348654681
2.6599999999999997,3.445792723910212,4.792405453997439,-1.346612730087227
2.67,3.510183168788495,4.88154154442195,-1.3713583756334549
2.6799999999999997,3.575759094965451,4.972168449461813,-1.3964093544963614
2.69,3.642528193295606,5.064307164254622,-1.4217789709590156
2.6999999999999997,3.7105154961878997,5.157978896339188,-1.447463400151288
2.71,3.7797325837048867,5.2532049561290535,-1.4734723724241667
2.7199999999999998,3.8502047754960773,5.350006569315063,-1.4998017938189858
2.73,3.9219441060581084,5.448405247080066,-1.5264611410219575
2.7399999999999998,3.994976188157826,5.5484226623241,-1.553446474166274
2.75,4.069313513173201,5.650080262269673,-1.5807667490964716
2.76,4.144981992185395,5.753399234735804,-1.6084172425504093
2.77,4.221994576733818,5.858400739821463,-1.6364061630876456
2.78,4.300377481467518,5.965106193041808,-1.6647287115742895
2.79,4.380144121632062,6.073537239531488,-1.6933931178994257
2.8,4.461321019723145,6.183715502592143,-1.7223944828689985
2.81,4.5439220596714165,6.295662583422256,-1.7517405237508399
2.82,4.627974077495366,6.4094001607222815,-1.7814260832269158
2.8299999999999996,4.713491426275129,6.524950116351736,-1.8114586900766065
2.84,4.800501264247771,6.642334708920977,-1.841833444673206
2.8499999999999996,4.889018417363882,6.7615764995796805,-1.8725580822157983
2.86,4.979070369273073,6.882698293080366,-1.903627923807293
2.8699999999999997,5.070672425074238,7.005723738619618,-1.9350513135453795
2.88,5.163852399072072,7.130676943175054,-1.9668245441029821
2.8899999999999997,5.258626078602292,7.257582031544957,-1.9989559529426648
2.9,5.355021616393542,7.3864633990423565,-2.0314417826488143
