q/kF, < omega_p(q)**3 >/wp(0)**3, Sum rule/wp(0)**3, < (omega/wp(0))**3*S > - SR
0.01,2.395891335405501e-05,1.9412349880230965e-05,4.546563473824044e-06
0.02,7.769211359266716e-05,7.765355409298282e-05,3.855949968433706e-08
0.03,0.00017469542222097776,0.00017473596614021614,-4.0543919238377564e-08
0.04,0.00031054078599833916,0.0003106798882470162,-1.391022486770476e-07
0.05,0.0004852044991778414,0.00048551316132512586,-3.086621472844558e-07
0.060000000000000005,0.0006986665441378732,0.0006997035592847547,-1.0370151468814268e-06
0.06999999999999999,0.0009509223649324065,0.0009526409784921608,-1.7186135597542724e-06
0.08,0.0012419666658751184,0.001244627052592147,-2.6603867170286576e-06
0.09,0.0015717921924245073,0.00157330012965523,-1.5079372307227022e-06
0.09999999999999999,0.0019403889246192582,0.0019425370484315758,-2.148123812317597e-06
0.11,0.0023477514538907014,0.002350681019943769,-2.929566053067739e-06
0.12,0.002793868627978862,0.0027956729437758213,-1.8043157969591106e-06
0.13,0.003278733152131104,0.0032885731587736877,-9.840006642583728e-06
0.14,0.0038023274481682494,0.003814552274598707,-1.2224826430457837e-05
0.15000000000000002,0.004364650435298796,0.004379519033862652,-1.4868598563856812e-05
0.16,0.004965677340476737,0.004983441002607143,-1.7763662130405693e-05
0.17,0.0056054087999267595,0.005626287134686056,-2.0878334759296888e-05
0.18000000000000002,0.0062838212414090076,0.006308029407722367,-2.4208166313359307e-05
0.19,0.007000906194085922,0.007028642517195181,-2.7736323109258526e-05
0.2,0.007756650184785131,0.007788112085314313,-3.1461900529181595e-05
0.21000000000000002,0.008551031553912248,0.008586431962853311,-3.540040894106297e-05
0.22,0.009384054116097797,0.009423604115798869,-3.954999970107176e-05
0.23,0.010255688841759203,0.010299643344910427,-4.395450315122437e-05
0.24000000000000002,0.011165945992672071,0.011214580781737423,-4.863478906535178e-05
0.25,0.012114809321024827,0.012168461188530488,-5.36518675056611e-05
0.26,0.013102274774091385,0.01316132955865593,-5.905478456454463e-05
0.27,0.01412834148386419,0.014193222266052938,-6.488078218874933e-05
0.28,0.015193011914897537,0.015264175379439837,-7.116346454229955e-05
0.29000000000000004,0.016296308042460735,0.016374208319840187,-7.790027737945154e-05
0.3,0.017438241840503084,0.017523331209791757,-8.508936928867256e-05
0.31,0.018618790565241183,0.018711551635798254,-9.276107055707083e-05
0.32,0.019838002044571954,0.019938862686881033,-0.00010086064230907868
0.33,0.021095891556966406,0.021058777917854446,3.711363911195961e-05
0.34,0.02239245028894309,0.022348885139198103,4.3565149744986126e-05
0.35000000000000003,0.02372770788264332,0.02367684067067235,5.0867211970971604e-05
0.36000000000000004,0.025101643851934592,0.025042556052308422,5.908779962617017e-05
0.37,0.02651430437587569,0.026445959264381834,6.834511149385672e-05
0.38,0.02796559927723929,0.02788698914285182,7.86101343874697e-05
0.39,0.02945558753625896,0.029365576999198655,9.001053706030396e-05
0.4,0.030984181925989215,0.030881687214386656,0.00010249471160255971
0.41000000000000003,0.032551370721278505,0.03243530993846545,0.0001160607828130586
0.42000000000000004,0.03415707169140844,0.034026443718961435,0.00013062797244700608
0.43,0.03580129590192179,0.035655099513153196,0.00014619638876859492
0.44,0.03748391304931548,0.037321309739355976,0.00016260330995950673
0.45,0.03920489380513244,0.0390251338079621,0.0001797599971703409
0.46,0.04096417476348271,0.040766652723506186,0.00019752203997652068
0.47000000000000003,0.04276169522560196,0.04254595344180183,0.00021574178380013437
0.48000000000000004,0.044597355491639984,0.04436311616942074,0.00023423932221924154
0.49,0.04647119520792768,0.046177858268801365,0.0002933369391263166
0.5,0.04838308623125672,0.04807223994265187,0.00031084628860485186
0.51,0.05033304735916819,0.050004800721565434,0.00032824663760275263
0.52,0.052321118198648986,0.05197561207949258,0.00034550611915640933
0.53,0.05434719780465621,0.05398476611833185,0.0003624316863243618
0.54,0.05641135187632852,0.0560323751111151,0.0003789767652134235
0.55,0.05851361015880357,0.05811856757595654,0.0003950425828470258
0.56,0.06065401619815399,0.06024349402455013,0.0004105221736038639
0.5700000000000001,0.06283256413532111,0.06240732233149376,0.0004252418038273517
0.5800000000000001,0.0650494459097228,0.06461023487073575,0.0004392110389870446
0.59,0.06730468139383732,0.06685240826466635,0.0004522731291709686
0.6,0.06959829185849553,0.06913400730589098,0.0004642845526045547
0.61,0.07193051351792065,0.0714551795587354,0.00047533395918525345
0.62,0.07430138731251569,0.07381603923442567,0.0004853480780900171
0.63,0.07671095229934692,0.07621670446049716,0.0004942478388497568
0.64,0.0791594806594463,0.0786572863742303,0.0005021942852159872
0.65,0.0816469447712914,0.08113789553665961,0.0005090492346317976
0.66,0.08417363755533327,0.08365861917872668,0.0005150183766065991
0.67,0.08673953144356215,0.08621948072622355,0.0005200507173385993
0.68,0.08934484953701284,0.08882049421791309,0.0005243553190997507
0.6900000000000001,0.09198982966897568,0.09146170766483187,0.0005281220041438023
0.7000000000000001,0.09467444131896392,0.09414321099518325,0.0005312303237806765
0.7100000000000001,0.09739902477319076,0.09686512876002167,0.0005338960131690967
0.72,0.10016354722001419,0.09962777582995336,0.0005357713900608352
0.73,0.10296826560330417,0.10243155041615166,0.0005367151871525089
0.74,0.10581345268215032,0.10527689248856106,0.0005365601935892611
0.75,0.10869907265606657,0.10816423087539939,0.0005348417806671779
0.76,0.1116254053178988,0.11109398749474515,0.0005314178231536487
0.77,0.1145927477401849,0.1140666997365526,0.0005260480036322901
0.78,0.11760106342035304,0.11708320069641553,0.0005178627239375011
0.79,0.1206506586873313,0.12014435620836976,0.0005063024789615372
0.8,0.12374185895104033,0.12325100692128933,0.0004908520297509933
0.81,0.12687463022916567,0.12640403816112414,0.0004705920680415365
0.8200000000000001,0.13004930989027708,0.12960423289031395,0.00044507699996312877
0.8300000000000001,0.13326625638768358,0.13285222514712738,0.0004140312405561952
0.8400000000000001,0.13652544200339456,0.13614867182193174,0.0003767701814628155
0.85,0.13982724012014786,0.13949421013402907,0.00033302998611878243
0.86,0.1431720473336146,0.1428894984066383,0.00028254892697629486
0.87,0.1465598462146268,0.14633534580580967,0.0002245004088171354
0.88,0.14999105141074157,0.1498326703483794,0.0001583810623621562
0.89,0.15346610299994265,0.1533821255890833,8.397741085935939e-05
0.9,0.15698499802126858,0.15698432619573013,6.718255384507987e-07
0.91,0.16054819782548932,0.1606398876722686,-9.168984677929148e-05
0.92,0.1641561914832322,0.16434948643120736,-0.00019329494797515334
0.93,0.16780899478727276,0.168113965039644,-0.00030497025237122277
0.9400000000000001,0.17150729223553374,0.1719342557581629,-0.0004269635226291646
0.9500000000000001,0.17525111502259708,0.17581138017319645,-0.0005602651505993705
0.9600000000000001,0.17904101462848349,0.17974641070262048,-0.0007053960741369991
0.97,0.18287757420934267,0.18374040889333973,-0.0008628346839970602
0.98,0.18676085115252425,0.187794467845118,-0.0010336166925937473
0.99,0.19069164885255732,0.19190973833226274,-0.0012180894797054198
1.0,0.19467004524662537,0.19608731379603028,-0.0014172685494049098
1.01,0.19869669828835804,0.200328286988023,-0.0016315886996649542
1.02,0.2027723018342627,0.20463381395389332,-0.0018615121196306206
1.03,0.2068969678943052,0.20900517031636,-0.0021082024220548112
1.04,0.2110716370782674,0.2134437184586507,-0.0023720813803833063
1.05,0.21529644747289303,0.21809261323232554,-0.0027961657594325062
1.06,0.219572181024862,0.22267251036122662,-0.0031003293363646156
1.07,0.22389966016377516,0.22732424218772787,-0.0034245820239527103
1.08,0.22827906558614333,0.23204931213578836,-0.003770246549645029
1.09,0.23271149492971024,0.23684922286357016,-0.004137727933859914
1.1,0.23719716100935692,0.24172546812420145,-0.004528307114844532
1.11,0.24173722979821863,0.24667957209817662,-0.004942342299957991
1.12,0.2463319488338975,0.25171313812356766,-0.005381189289670157
1.1300000000000001,0.2509825559823779,0.2568279927333254,-0.005845436750947508
1.1400000000000001,0.25568933619883366,0.2620260697654113,-0.006336733566577657
1.1500000000000001,0.260453602918896,0.2673093671435352,-0.0068557642246391826
1.1600000000000001,0.265275681348099,0.2726799568695113,-0.007404275521412318
1.17,0.270156964295546,0.27813991118303955,-0.00798294688749357
1.18,0.2750978201385696,0.2834940074046407,-0.008396187266071109
1.19,0.2800997250296485,0.28913318910840546,-0.009033464078756936
1.2,0.2851630935474467,0.2948676674742672,-0.009704573926820503
1.21,0.29028948925489817,0.3006995976052861,-0.010410108350387914
1.22,0.29547937610934166,0.30663124093304456,-0.011151864823702895
1.23,0.30073440932727463,0.312664965901656,-0.011930556574381357
1.24,0.3060551054769254,0.3188031615746995,-0.01274805609777413
1.25,0.31144321578393597,0.3250481432683661,-0.013604927484430152
1.26,0.31689931284714723,0.3314021991640496,-0.014502886316902386
1.27,0.32242524838717335,0.3378677609269436,-0.015442512539770248
1.28,0.328021654470395,0.3444473590879709,-0.01642570461757592
1.29,0.33369015576219124,0.3511436190032079,-0.017453463241016653
1.3,0.3394324439887142,0.3579592740056534,-0.018526830016939222
1.31,0.3452492456534492,0.3648970424333429,-0.0196477967798937
1.32,0.35114268580378044,0.3719597416613526,-0.020817055857572153
1.33,0.3571135596093015,0.37915035217587845,-0.022036792566576924
1.34,0.3631641093238212,0.3864719441385087,-0.02330783481468751
1.35,0.36929520258325815,0.3939275598828997,-0.024632357299641527
1.36,0.3755092039268568,0.4015202467573778,-0.02601104283052097
1.37,0.38180705725418396,0.4092530991917639,-0.027446041937579935
1.3800000000000001,0.38819125470533494,0.41712923797625073,-0.02893798327091579
1.3900000000000001,0.39466282037990186,0.4251519339131227,-0.03048911353322087
1.4000000000000001,0.40122437924224313,0.4333243329600336,-0.03209995371779045
1.4100000000000001,0.40787703949271376,0.44164947062663323,-0.03377243113391948
1.42,0.41462356431631936,0.45013053573007217,-0.03550697141375281
1.43,0.4214651504066195,0.4587708333285999,-0.03730568292198039
1.44,0.42840470419992355,0.4675736775507095,-0.03916897335078595
1.45,0.4354435151822082,0.4765425425508959,-0.0410990273686877
1.46,0.4425841981867085,0.48568116252845495,-0.043096964341746424
1.47,0.4498294608794237,0.4949933265615395,-0.04516386568211578
1.48,0.4571807369722148,0.5044829558991643,-0.04730221892694947
1.49,0.4646413178491155,0.5141540566061316,-0.04951273875701606
1.5,0.47221274130303365,0.5240109534611185,-0.05179821215808483
1.51,0.47989846117843504,0.5340584568130297,-0.054159995634594615
1.52,0.4877001214111584,0.5443014981063422,-0.05660137669518378
1.53,0.4956208532962837,0.554745116378462,-0.05912426308217833
1.54,0.5036638897748483,0.5653944597635469,-0.061730569988698525
1.55,0.5118310434666996,0.576254628000539,-0.06442358453383934
1.56,0.5201256841554367,0.5873305618479449,-0.06720487769250816
1.57,0.528551294940603,0.5986272816943308,-0.07007598675372773
1.58,0.5371098601714799,0.6101498656440808,-0.07304000547260092
1.59,0.5458055493737528,0.6219034537102507,-0.07609790433649788
1.6,0.5546404750483376,0.6338930848576675,-0.07925260980932991
1.61,0.5636184337027601,0.6461230330427183,-0.08250459933995824
1.62,0.572742780969287,0.658598468855841,-0.08585568788655396
1.6300000000000001,0.5820175200781764,0.671325035081049,-0.0893075150028726
1.6400000000000001,0.5914450185021476,0.6843083779655574,-0.09286335946340984
1.6500000000000001,0.6010294182178451,0.69755436415545,-0.09652494593760497
1.6600000000000001,0.6107751135976893,0.7110693156825604,-0.10029420208487105
1.6700000000000002,0.6206845995103742,0.7248597688780349,-0.10417516936766069
1.68,0.6307622676830903,0.7389320977404956,-0.10816983005740533
1.69,0.641012177811888,0.753292354712552,-0.11228017690066394
1.7,0.6514389883302303,0.7679466440559876,-0.11650765572575728
1.71,0.6620455505293027,0.7829017158655288,-0.12085616533622612
1.72,0.6728367211212506,0.7981648106749103,-0.1253280895536597
1.73,0.6838168397938461,0.8137417904598329,-0.12992495066598675
1.74,0.6949910064383722,0.829638086235328,-0.13464707979695578
1.75,0.706362376234841,0.8458593810254557,-0.13949700479061466
1.76,0.7179362372626904,0.862411329744915,-0.14447509248222457
1.77,0.7297173134078438,0.8792994826547478,-0.14958216924690393
1.78,0.7417104142296586,0.8965293930019663,-0.15481897877230777
1.79,0.7539212082845703,0.9141067651611825,-0.16018555687661218
1.8,0.7663532317965246,0.9320376182566427,-0.16568438646011807
1.81,0.7790123479211296,0.950329047503507,-0.17131669958237739
1.82,0.7919037823426132,0.9689883251346144,-0.17708454279200125
1.83,0.8050328761149186,0.9880229335281756,-0.18299005741325702
1.84,0.8184050700533982,1.0074414941903238,-0.18903642413692556
1.85,0.8320259174585444,1.0272531854891689,-0.1952272680306245
1.86,0.8459010807601659,1.0474675668929623,-0.20156648613279637
1.87,0.8600371883704034,1.0680944226247657,-0.2080572342543623
1.8800000000000001,0.8744384281217173,1.0891436149317273,-0.21470518681000994
1.8900000000000001,0.8891116382060155,1.1106250874283905,-0.22151344922237504
1.9000000000000001,0.9040629312180963,1.1325490593426961,-0.22848612812459979
1.9100000000000001,0.9192985328032612,1.1549258484093927,-0.23562731560613148
1.9200000000000002,0.934824785988161,1.177765669922098,-0.24294088393393698
1.93,0.9506481500094537,1.2010777801639578,-0.25042963015450415
1.94,0.9667752018423119,1.224870597047286,-0.25809539520497404
1.95,0.9832126390479696,1.249152184423916,-0.26593954537594633
1.96,0.9999672776640502,1.2739301639221072,-0.273962886258057
1.97,1.0170460564868482,1.2992119134731592,-0.282165856986311
1.98,1.0344560352848726,1.3250048146062052,-0.2905487793213326
1.99,1.052204397168606,1.3513162880461007,-0.2991118908774948
2.0,1.070298448997121,1.37815379579242,-0.3078553467952989
2.01,1.0887456237351607,1.4055248138610426,-0.31677919012588185
2.02,1.1075534787338652,1.4334369036714778,-0.3258834249376126
2.03,1.1267296998387004,1.4618978947504522,-0.33516819491175176
2.04,1.146282099551385,1.4909161147979375,-0.34463401524655257
2.05,1.1662186197418332,1.5205008715590238,-0.35428225181719064
2.0599999999999996,1.1865473327012415,1.5506625677597905,-0.36411523505854904
2.07,1.2072764393194018,1.5814119767176067,-0.37413553739820493
2.0799999999999996,1.228414274586782,1.6127599230578342,-0.3843456484710521
2.09,1.249969303730743,1.6447171789513906,-0.39474787522064747
2.0999999999999996,1.2719501267665314,1.677295222266185,-0.4053450954996536
2.11,1.294365477127214,1.71050600254625,-0.416140525419036
2.1199999999999997,1.3172242238362777,1.7443616533847486,-0.4271374295484709
2.13,1.3405353722621063,1.7788746120802426,-0.4383392398181363
2.1399999999999997,1.3643080632008815,1.814057808600267,-0.4497497453993855
2.15,1.3885515762466845,1.849924558914719,-0.4613729826680346
2.1599999999999997,1.413275330032522,1.886487972345189,-0.473212642312667
2.17,1.4384888814333625,1.923760797289869,-0.4852719158565064
2.1799999999999997,1.4642019281902852,1.961755475306101,-0.4975535471158159
2.19,1.490424308788679,2.0004846331772317,-0.5100603243885526
2.1999999999999997,1.5171644973862115,2.039961132372785,-0.5227966349865736
2.21,1.5444356044058256,2.080198193246291,-0.5357625888404656
2.2199999999999998,1.5722464159544087,2.1212095785921417,-0.5489631626377329
2.23,1.600607343803428,2.1630090678078484,-0.5624017240044203
2.2399999999999998,1.6295289437811187,2.205609618848451,-0.5760806750673324
2.25,1.659021918655797,2.2490239594526322,-0.5900020407968352
2.26,1.6890971174519753,2.293264439612929,-0.6041673221609536
2.27,1.7197655378921655,2.3383431586687085,-0.618577620776543
2.28,1.7510383245090069,2.3842722540132053,-0.6332339295041984
2.29,1.782926771464413,2.4334535313073675,-0.6505267598429545
2.3,1.8154423239979334,2.481254104923018,-0.6658117809250848
2.31,1.8485965767241894,2.5299501817176533,-0.6813536049934639
2.32,1.8824012768014373,2.5795547533788614,-0.6971534765774241
2.3299999999999996,1.9168683230750505,2.6300811634175245,-0.713212840342474
2.34,1.9520097680336508,2.681541949843237,-0.7295321818095863
2.3499999999999996,1.9878378178529763,2.7339492782935335,-0.7461114604405572
2.36,2.024364833465972,2.78731591957997,-0.7629510861139979
2.3699999999999997,2.061603331397987,2.837921899566922,-0.7763185681689349
2.38,2.0995659844263517,2.893025460301571,-0.7934594758752191
2.3899999999999997,2.13826562302955,2.9491163685503174,-0.8108507455207676
2.4,2.177715234325887,3.0062094136200153,-0.828494179294128
2.4099999999999997,2.2179301658266186,3.0643194916940373,-0.8463893258674187
2.42,2.2589193636643117,3.123461608655107,-0.8645422449907953
2.4299999999999997,2.3006984536120605,3.183651110518319,-0.8829526569062587
2.44,2.343281063221556,3.244905775052455,-0.9016247118308987
2.4499999999999997,2.3866809814509757,3.3072457568869202,-0.9205647754359445
2.46,2.430912160183379,3.3706911119173317,-0.9397789517339525
2.4699999999999998,2.4759887144787878,3.4352610949552695,-0.9592723804764818
2.48,2.5219249235255674,3.500974943413963,-0.9790500198883958
2.4899999999999998,2.5687352318608982,3.5678519694489306,-0.9991167375880323
2.5,2.616434249392309,3.6359103953062752,-1.0194761459139663
2.51,2.665039399436144,3.705166985946284,-1.04012758651014
2.52,2.714560386268453,3.7756386039020358,-1.061078217633583
2.53,2.7650149186721573,3.847342762473841,-1.082327843801684
2.54,2.8164182768429664,3.920296166531924,-1.1038778896889574
2.55,2.8687859132908407,3.9945134485853795,-1.1257275352945388
2.56,2.9221363498799002,4.070009662108171,-1.1478733122282705
2.57,2.976479641900792,4.146800143777944,-1.170320501877152
2.5799999999999996,3.0318345971095133,4.224900475364023,-1.1930658782545094
2.59,3.088217355538341,4.304326567645179,-1.2161092121068382
2.5999999999999996,3.1456473528543123,4.394796286995452,-1.2491489341411395
2.61,3.2041349030216186,4.477027502608025,-1.2728925995864064
2.6199999999999997,3.2636997280475164,4.560615862492009,-1.2969161344444924
2.63,3.324358670867155,4.645582401073303,-1.3212237302061478
2.6399999999999997,3.3861321165043528,4.731950947065256,-1.3458188305609031
2.65,3.4490306081683517,4.819747682728617,-1.3707170745602655
2.6599999999999997,3.5130748182907006,4.908999565647268,-1.3959247473565677
2.67,3.578285862799057,4.999732296978143,-1.4214464341790864
2.6799999999999997,3.6446744495515375,5.082061705223694,-1.4373872556721565
2.69,3.7122656629565727,5.1758815377477925,-1.4636158747912198
2.6999999999999997,3.7810703312581575,5.271371988517925,-1.4903016572597672
2.71,3.8511103475938735,5.368311556373128,-1.5172012087792548
2.7199999999999998,3.922408088224078,5.466860713864206,-1.5444526256401274
2.73,3.9949745092985864,5.567039498094323,-1.572064988795737
2.7399999999999998,4.068836315866323,5.668868296311478,-1.6000319804451548
2.75,4.144004560390698,5.772367358602046,-1.6283627982113478
2.76,4.220506613902773,5.877556783861215,-1.657050169958442
2.77,4.298353614958541,5.984455770500137,-1.6861021555415965
2.78,4.377573620018372,6.093082488015774,-1.7155088679974027
2.79,4.458177842620407,6.203454889468701,-1.7452770468482939
2.8,4.5401950442813925,6.315590809888664,-1.7753957656072714
2.81,4.6236410804861166,6.4295082858625285,-1.805867205376412
2.82,4.708531706618608,6.545225937328398,-1.8366942307097904
2.8299999999999996,4.794896738363077,6.662764022959791,-1.8678672845967137
2.84,4.882747569075757,6.782143495152753,-1.8993959260769957
2.8499999999999996,4.972114775070693,6.903385783571563,-1.93127100850087
2.86,5.063014796883843,7.026512813450784,-1.9634980165669411
2.8699999999999997,5.155463941196951,7.151546662503171,-1.9960827213062204
2.88,5.249493923117452,7.278509850307197,-2.0290159271897448
2.8899999999999997,5.345121532618846,7.407428597692043,-2.062307065073197
2.9,5.442368785403919,7.53833095296338,-2.0959621675594615
