q/kF, < omega_p(q)**3 >/wp(0)**3, Sum rule/wp(0)**3, < (omega/wp(0))**3*S > - SR
0.01,2.403692432440373e-05,1.9412305634690228e-05,4.624618689713503e-06
0.02,7.769048133114828e-05,7.765284692196186e-05,3.763440918641168e-08
0.03,0.00017469599197744465,0.00017473239569068265,-3.640371323799466e-08
0.04,0.00031054024065209736,0.00031066865024149737,-1.2840958940000397e-07
0.05,0.0004852032414056411,0.0004854858803746492,-2.826389690080704e-07
0.060000000000000005,0.0006986640854111881,0.0006992130813106498,-5.489958994617022e-07
0.06999999999999999,0.0009509182223235684,0.0009518817656866822,-9.6354336311371e-07
0.08,0.0012419591698538894,0.0012443784284078792,-2.4192585539898823e-06
0.09,0.0015717820295528461,0.0015753270832437256,-3.545053690879414e-06
0.09999999999999999,0.0019403763089788138,0.0019453512409779287,-4.974931999114857e-06
0.11,0.0023477373996891888,0.0023544661468677267,-6.728747178537907e-06
0.12,0.00279385535049451,0.002802677140551132,-8.82179005662169e-06
0.13,0.0032787213103323523,0.003289977452741131,-1.1256142408778633e-05
0.14,0.0038023259727600995,0.0038163463127105254,-1.4020339950425887e-05
0.15000000000000002,0.004364664036373932,0.004381748472027184,-1.7084435653251864e-05
0.16,0.0049657223539288356,0.004986140959816268,-2.0418605887432585e-05
0.17,0.005605496340689994,0.0056294781603871726,-2.3981819697178365e-05
0.18000000000000002,0.0062839775405014115,0.006311714850679604,-2.7737310178192927e-05
0.19,0.007001150472220388,0.007032807473225817,-3.1657001005429286e-05
0.2,0.00775701974226832,0.00779272241994454,-3.570267767622013e-05
0.21000000000000002,0.008551561854578851,0.008581006299154094,-2.9444444575242937e-05
0.22,0.009384774727670226,0.009417254549572552,-3.24798219023259e-05
0.23,0.01025664897564579,0.010292267608551373,-3.561863290558326e-05
0.24000000000000002,0.011167174723952508,0.01120607208042498,-3.889735647247261e-05
0.25,0.012116341418240344,0.012158708737493825,-4.236731925348104e-05
0.26,0.013104150660878933,0.013150219260068001,-4.606859918906796e-05
0.27,0.014130564806939083,0.014180637337913813,-5.0072530974729426e-05
0.28,0.01519559711742588,0.015178403284124741,1.7193833301138578e-05
0.29000000000000004,0.01629923537278429,0.016278129908712215,2.1105464072072866e-05
0.3,0.01744143107863362,0.01741608725381807,2.534382481554978e-05
0.31,0.01862219882944026,0.018592245799855613,2.9953029584646462e-05
0.32,0.019841521236698762,0.019806562578302607,3.495865839615517e-05
0.33,0.02109935812538237,0.0210589656494767,4.0392475905669245e-05
0.34,0.02239570719245978,0.02234936973561866,4.633745684112095e-05
0.35000000000000003,0.023730522512060814,0.02367768559748548,5.283691457533268e-05
0.36000000000000004,0.025103801622168718,0.02504382800623151,5.9973615937208846e-05
0.37,0.026515520322706144,0.026447727393921996,6.779292878414736e-05
0.38,0.027965626341679633,0.027889324471967274,7.630186971235853e-05
0.39,0.02945412045745914,0.029368552352933952,8.556810452518826e-05
0.4,0.030980979328406266,0.030885376872944573,9.560245546169285e-05
0.41000000000000003,0.03254614868882629,0.032439789322062824,0.00010635936676346713
0.42000000000000004,0.03414963794186069,0.03403178961025913,0.00011784833160156244
0.43,0.03579142980383059,0.03566139040250906,0.00013003940132153002
0.44,0.037471510096346604,0.03732862537800072,0.00014288471834588562
0.45,0.03918986819053045,0.039033555647023065,0.00015631254350738366
0.46,0.04094645663214179,0.04077626465975478,0.00017019197238701128
0.47000000000000003,0.04274135273738069,0.04255684203863628,0.0001845106987444084
0.48000000000000004,0.04457447508118273,0.04437537094369975,0.0001991041374829819
0.49,0.04644587084286462,0.04623194028923866,0.00021393055362595864
0.5,0.048355551066172016,0.04809074437095761,0.00026480669521440625
0.51,0.050303531397913104,0.050024859525545216,0.00027867187236788743
0.52,0.052289779987668615,0.05199733648185307,0.00029244350581554557
0.53,0.05431442361137997,0.05400827170737216,0.0003061519040078106
0.54,0.056377384950415055,0.05605778104610711,0.00031960390430794267
0.55,0.05847880746416547,0.05814599597495566,0.00033281148920981385
0.56,0.060618613749622734,0.06027306960164829,0.00034554414797444144
0.5700000000000001,0.06279696355352614,0.06243917094361587,0.00035779260991027073
0.5800000000000001,0.06501377864256681,0.06464448265210432,0.0003692959904624954
0.59,0.06726916775100092,0.06688918160974965,0.0003799861412512734
0.6,0.06956325213465311,0.06917343388896678,0.0003898182456863325
0.61,0.07189595098778517,0.07149738901537857,0.0003985619724066053
0.62,0.07426739024091322,0.0738611630652155,0.00040622717569772926
0.63,0.07667763237025049,0.07626487634529654,0.0004127560249539558
0.64,0.0791267434255425,0.07870864421792102,0.0004180992076214807
0.65,0.08161479311861139,0.08119258282973685,0.0004222102888745416
0.66,0.08414185494558733,0.08371678425881847,0.0004250706867688636
0.67,0.08670800634122963,0.08628127649242197,0.00042672984880766374
0.68,0.08931332886307296,0.08888607868576213,0.0004272501773108228
0.6900000000000001,0.0919579084036482,0.09153124588512779,0.00042666251852041537
0.7000000000000001,0.09464183542844723,0.0942168764804863,0.00042495894796093503
0.7100000000000001,0.09736520523738915,0.0969431036323188,0.0004221016050703491
0.72,0.100128118246751,0.09971024932044781,0.0004178689263031887
0.73,0.1029306802919313,0.10251871888619012,0.0004119614057411791
0.74,0.10577300294580917,0.10536896033404149,0.0004040426117676854
0.75,0.10865520385391175,0.10826141061284639,0.0003937932410653655
0.76,0.11157740708297645,0.11119649806919477,0.00038090901378168285
0.77,0.11453974348304724,0.11417476550601474,0.000364977977032499
0.78,0.11754235106025224,0.11719705107283829,0.0003452999874139495
0.79,0.12058537536132491,0.12026422597298499,0.00032114938833992246
0.8,0.12366884673165814,0.12337713500116061,0.00029171173049752364
0.81,0.12679317019941264,0.1265366655824218,0.00025650461699083804
0.8200000000000001,0.1299583962214364,0.12974360276532274,0.00021479345611366552
0.8300000000000001,0.1331647045368848,0.13299858361361672,0.0001661209232680927
0.8400000000000001,0.13641228448435533,0.13630226881276924,0.00011001567158608339
0.85,0.1397013354406987,0.13965529984003142,4.603560066729351e-05
0.86,0.14303206726443576,0.1430583400481986,-2.627278376282627e-05
0.87,0.1464047007516081,0.14651220552691013,-0.00010750477530202529
0.88,0.14981946809722269,0.15001782192000643,-0.00019835382278374225
0.89,0.1532766133669936,0.153575850648996,-0.0002992372820024014
0.9,0.15677639297659707,0.15718691200358462,-0.00041051902698754916
0.91,0.16031907618142482,0.16085162781179954,-0.0005325516303747169
0.92,0.16390494557684937,0.1645706832386619,-0.000665737661812521
0.93,0.16753429760151803,0.1683449309432686,-0.0008106333417505773
0.9400000000000001,0.17120727263572327,0.17228831511995166,-0.001081042484228384
0.9500000000000001,0.17492453357744675,0.1761763675568892,-0.0012518339794424516
0.9600000000000001,0.17868625475782848,0.18012276287421597,-0.001436508116387486
0.97,0.18249279330673102,0.1841285780711979,-0.00163578476446688
0.98,0.1863445229124448,0.1881949221980115,-0.0018503992855667117
0.99,0.19024183438995135,0.1923229670008257,-0.0020811326108743644
1.0,0.19418513628224532,0.19651383302789854,-0.002328696745653225
1.01,0.1981748554524688,0.2007686386381695,-0.002593783185700693
1.02,0.20221143770612734,0.2050885588945715,-0.0028771211884441594
1.03,0.2062953484249709,0.20947489428716307,-0.003179545862192157
1.04,0.21042707320375775,0.2139290371914679,-0.0035019639877101605
1.05,0.2146071185246686,0.21845242248633606,-0.0038453039616674622
1.06,0.21883601241141656,0.22304653472621166,-0.004210522314795101
1.07,0.22311430514920447,0.22771285303930422,-0.004598547890099752
1.08,0.2274425699540692,0.23245288778669626,-0.005010317832627065
1.09,0.23182140373640403,0.2372681531226081,-0.0054467493862040695
1.1,0.23625142780457906,0.2421601559291313,-0.005908728124552232
1.11,0.24073328864139837,0.24713043041853847,-0.006397141777140097
1.12,0.24526765867138917,0.2521805882673754,-0.006912929595986217
1.1300000000000001,0.2498554857375343,0.25731246745126674,-0.007456981713732436
1.1400000000000001,0.2544970038145519,0.26252801667039444,-0.008031012855842512
1.1500000000000001,0.25919321203147916,0.2678292497554078,-0.008636037723928625
1.1600000000000001,0.2639448946418221,0.2732182501501499,-0.009273355508327807
1.17,0.2687528659417055,0.27869710111882884,-0.00994423517712334
1.18,0.27361797117718956,0.28426773344305417,-0.010649762265864615
1.19,0.2785410874127523,0.2899321014827948,-0.011391014070042504
1.2,0.28352312444461747,0.2956922395197114,-0.01216911507509394
1.21,0.2885650257271122,0.30155027162233855,-0.012985245895226372
1.22,0.29366776933622724,0.3073131637302279,-0.013645394394000643
1.23,0.2988323689122927,0.3133694959375382,-0.014537127025245511
1.24,0.30405987462168005,0.3195308629032959,-0.01547098828161586
1.25,0.3093513741989543,0.3257995850071018,-0.016448210808147512
1.26,0.3147079939246606,0.3321779539636581,-0.017469960038997534
1.27,0.3201308996651009,0.338668404937442,-0.018537505272341104
1.28,0.32562129787476807,0.34527347399799935,-0.01965217612323128
1.29,0.33118043671800673,0.35199579275869763,-0.020815356040690902
1.3,0.3368099423375477,0.35883810107024916,-0.022028158732701475
1.31,0.3425104848864952,0.3658031266584811,-0.023292641771985867
1.32,0.3482837735864981,0.37289369514065906,-0.024609921554160974
1.33,0.35413123424778126,0.38011279165448664,-0.02598155740670538
1.34,0.36005433982851687,0.3874634913960818,-0.02740915156756496
1.35,0.3660546117498856,0.3949488479554769,-0.02889423620559134
1.36,0.3721336207851868,0.4025719209150604,-0.030438300129873586
1.37,0.37829298850123355,0.4103358188215979,-0.03204283032036437
1.3800000000000001,0.38453438833607145,0.4182436778414672,-0.033709289505395756
1.3900000000000001,0.3908595466843496,0.4262987866849474,-0.03543924000059784
1.4000000000000001,0.39727024440921516,0.43450431059420114,-0.03723406618498598
1.4100000000000001,0.40376831739358776,0.4428633020663802,-0.03909498467279243
1.42,0.41035565885693653,0.45137896016,-0.041023301303063475
1.43,0.417034219374891,0.4600545953826688,-0.043020376007777805
1.44,0.42380600903886134,0.4688935264453075,-0.045087517406446176
1.45,0.4306730982491994,0.47789923385702043,-0.04722613560782102
1.46,0.43763761901364884,0.4870754555603557,-0.04943783654670686
1.47,0.44470176663163197,0.4964259815589588,-0.05172421492732682
1.48,0.45186779992807,0.5059547358277993,-0.05408693589972924
1.49,0.459138500322511,0.5156657291871413,-0.05652722886463024
1.5,0.4665153541782407,0.5255632940913069,-0.05904793991306617
1.51,0.47400126980899565,0.5356522503639758,-0.06165098055498014
1.52,0.48159877558763114,0.5459375411553954,-0.06433876556776424
1.53,0.4893104721844557,0.5564242222714214,-0.06711375008696568
1.54,0.4971390294602342,0.5671174599048591,-0.06997843044462487
1.55,0.5050871942081604,0.5780223719828005,-0.07293517777464009
1.56,0.5131577830451661,0.5891439208863862,-0.0759861378412201
1.57,0.5213536934841075,0.6004871482194306,-0.07913345473532307
1.58,0.5296778950096463,0.6120571503057788,-0.08237925529613244
1.59,0.5381334383084738,0.6238590878741956,-0.08572564956572182
1.6,0.5467234572529448,0.6358980224692519,-0.08917456521630707
1.61,0.555450603266971,0.6481782431137101,-0.09272763984673904
1.62,0.5643192773720798,0.6607049332277222,-0.0963856558556424
1.6300000000000001,0.5733322940145296,0.6734837561765423,-0.10015146216201276
1.6400000000000001,0.582493132658793,0.686520386815593,-0.10402725415680003
1.6500000000000001,0.5918053639703691,0.699820711940492,-0.10801534797012291
1.6600000000000001,0.6012725566781706,0.713391060251696,-0.11211850357352537
1.6700000000000002,0.6108984765814438,0.7272379653501884,-0.11633948876874456
1.68,0.6206869416583909,0.7413677990888249,-0.120680857430434
1.69,0.6306418480704071,0.7557866150982495,-0.12514476702784239
1.7,0.640767190379664,0.7705005255788243,-0.1297333351991603
1.71,0.6510670665128795,0.7855162836123043,-0.1344492170994248
1.72,0.6615456535033317,0.8008411357381549,-0.13929548223482313
1.73,0.6722072442860672,0.8164809588264845,-0.14427371454041737
1.74,0.683056209184065,0.8324411828940407,-0.14938497370997572
1.75,0.6940970334053879,0.848727476416495,-0.15463044301110718
1.76,0.7053335881265285,0.8653454872504613,-0.16001189912393288
1.77,0.7167719493471802,0.8823007730959734,-0.16552882374879319
1.78,0.7284162034428863,0.899598909412634,-0.17118270596974772
1.79,0.7402712353909873,0.9172456216211138,-0.1769743862301265
1.8,0.752342036439355,0.9352469488952344,-0.18290491245587936
1.81,0.7646337024347616,0.9536100097746641,-0.18897630733990256
1.82,0.7771514314888254,0.9723421109102864,-0.19519067942146107
1.83,0.7899005374786359,0.9914507766361229,-0.20155023915748704
1.84,0.802885639329723,1.010944676179639,-0.208059036849916
1.85,0.8161138499958279,1.030833046894492,-0.21471919689866403
1.86,0.8295900252250186,1.051125492206102,-0.2215354669810834
1.87,0.8433199187829735,1.071831830605792,-0.22851191182281838
1.8800000000000001,0.8573093970638147,1.0929619539919972,-0.23565255692818254
1.8900000000000001,0.8715644417543611,1.1145258391101436,-0.24296139735578248
1.9000000000000001,0.8860911515915101,1.1365337336941064,-0.2504425821025963
1.9100000000000001,0.9008948458789554,1.158995983594039,-0.2581011377150837
1.9200000000000002,0.9159836328099453,1.181922843342802,-0.26593921053285663
1.93,0.9313630828874481,1.2053236182322997,-0.27396053534485165
1.94,0.947039767095628,1.2292067722702253,-0.28216700517459736
1.95,0.9630203788191438,1.2535803877763518,-0.290560008957208
1.96,0.9793117320704813,1.2784520813114755,-0.2991403492409942
1.97,0.9959207654269188,1.3038292317496518,-0.30790846632273305
1.98,1.0128535356265957,1.3297192280959593,-0.3168656924693636
1.99,1.0301192234420438,1.3561295082159934,-0.32601028477394967
2.0,1.047724152334165,1.3830675612052488,-0.3353434088710838
2.01,1.0656757629797236,1.4105408978545673,-0.3448651348748437
2.02,1.0839816226014038,1.438557112459564,-0.3545754898581601
2.03,1.1026494287288633,1.4671240481832386,-0.3644746194543753
2.04,1.1216858944026888,1.4962500347249499,-0.37456414032226104
2.05,1.1411011857036981,1.5259443733033355,-0.3848431875996374
2.0599999999999996,1.160902296930623,1.5562174507981796,-0.39531515386755656
2.07,1.1810974486984585,1.5870800394037492,-0.40598259070529075
2.0799999999999996,1.2016949974611981,1.618542994478142,-0.41684799701694386
2.09,1.2227034320293422,1.6506171393140154,-0.42791370728467326
2.0999999999999996,1.2441313778085226,1.6833140177356356,-0.43918263992711304
2.11,1.2659875955942672,1.7166456519352633,-0.4506580563409961
2.1199999999999997,1.2882797062204845,1.75062424491964,-0.4623445386991556
2.13,1.311019279579887,1.7852623066529507,-0.47424302707306376
2.1399999999999997,1.3342142329106559,1.8205728225359885,-0.4863585896253326
2.15,1.3578738805198283,1.8565691434696,-0.4986952629497716
2.1599999999999997,1.3820076775077177,1.8932644429631882,-0.5112567654554705
2.17,1.406625219065075,1.9306715420468845,-0.5240463229818095
2.1799999999999997,1.431736242946077,1.968802950473906,-0.537066707527829
2.19,1.457350629393936,2.0076713545542835,-0.5503207251603475
2.1999999999999997,1.4834784030439738,2.047289656066461,-0.563811253022487
2.21,1.5101297319059241,2.0876711064606117,-0.5775413745546876
2.2199999999999998,1.5373149298078697,2.1288295000468005,-0.5915145702389308
2.23,1.5650444568548876,2.17077863707013,-0.6057341802152423
2.2399999999999998,1.5933289188719995,2.2135314888568556,-0.6202025699848561
2.25,1.6221774623254335,2.2571008026528565,-0.634923340327423
2.26,1.6516041760359224,2.3014989728997377,-0.6498947968638153
2.27,1.6816185325078055,2.348455950215317,-0.6668374177075116
2.28,1.7122317322500407,2.3946508715880745,-0.6824191393380339
2.29,1.7434551267672498,2.441717585139287,-0.6982624583720372
2.3,1.7753019793479667,2.4896687823393533,-0.7143668029913866
2.31,1.8077804585135144,2.538517272773808,-0.7307368142602937
2.32,1.840904100242445,2.5882760761192025,-0.7473719758767574
2.3299999999999996,1.8746848659043531,2.638958553672061,-0.7642736877677077
2.34,1.9091348716619643,2.690577272063642,-0.7814424004016778
2.3499999999999996,1.9442663884988745,2.740407370228908,-0.7961409817300333
2.36,1.9800918432237127,2.7937671231743346,-0.8136752799506219
2.3699999999999997,2.0166238192548,2.848089760994827,-0.831465941740027
2.38,2.053875057244521,2.9033891190182093,-0.8495140617736885
2.3899999999999997,2.091858456428739,2.9596794732218985,-0.8678210167931595
2.4,2.130587073633028,3.0169756471756872,-0.8863885735426593
2.4099999999999997,2.1700762770171154,3.075292561797437,-0.9052162847803218
2.42,2.2103351857674904,3.1346452579636317,-0.9243100721961413
2.4299999999999997,2.251379446090984,3.1950491735956317,-0.9436697275046475
2.44,2.293222758237406,3.2565221370173387,-0.9632993787799329
2.4499999999999997,2.3358789845183896,3.319084329871765,-0.9832053453533756
2.46,2.379364510630811,3.382755838538724,-1.0033913279079134
2.4699999999999998,2.4236888568850388,3.4475559444693973,-1.0238670875843585
2.48,2.4688686884928934,3.513503908621651,-1.0446352201287574
2.4899999999999998,2.5149210147983325,3.5806190830758284,-1.065698068277496
2.5,2.5618555979698825,3.648919760561722,-1.0870641625918394
2.51,2.6096897278125826,3.718422796203859,-1.1087330683912766
2.52,2.6584410549018775,3.789145142745288,-1.1307040878434105
2.53,2.7081195697907874,3.861104394450771,-1.1529848246599834
2.54,2.7587432023458147,3.934317311242956,-1.1755741088971412
2.55,2.81033026669889,4.0087985395365715,-1.1984682728376814
2.56,2.8628909600115517,4.084563103057207,-1.2216721430456556
2.57,2.9164467596969446,4.161626316878871,-1.2451795571819262
2.5799999999999996,2.9710080117099307,4.248056859414817,-1.277048847704886
2.59,3.026593750847872,4.327890720574174,-1.3012969697263017
2.5999999999999996,3.083223433467166,4.40905073091478,-1.325827297447614
2.61,3.14090757694626,4.4915548615800445,-1.3506472846337845
2.6199999999999997,3.1996690939108268,4.575423273493241,-1.3757541795824144
2.63,3.259521847612536,4.660677048940481,-1.4011552013279447
2.6399999999999997,3.320479679704061,4.747339885379597,-1.4268602056755362
2.65,3.3825663556328665,4.835437825219011,-1.4528714695861447
2.6599999999999997,3.445792723910212,4.916509359027818,-1.4707166351176055
2.67,3.510183168788495,5.007581913449116,-1.4973987446606216
2.6799999999999997,3.575759094965451,5.1001795778751635,-1.5244204829097123
2.69,3.642528193295606,5.194325759325507,-1.5517975660299013
2.6999999999999997,3.7105154961878997,5.290043935927798,-1.5795284397398985
2.71,3.7797325837048867,5.387358129162723,-1.6076255454578363
2.7199999999999998,3.8502047754960773,5.486289560062161,-1.636084784566084
2.73,3.9219441060581084,5.5868388236917985,-1.6648947176336901
2.7399999999999998,3.994976188157826,5.689023229074766,-1.69404704091694
2.75,4.069313513173201,5.792883127058567,-1.723569613885366
2.76,4.144981992185395,5.898438651022381,-1.7534566588369866
2.77,4.221994576733818,6.005709065156021,-1.7837144884222038
2.78,4.300377481467518,6.114712606924564,-1.8143351254570455
2.79,4.380144121632062,6.22546729598691,-1.8453231743548475
2.8,4.461321019723145,6.33799104742159,-1.8766700276984452
2.81,4.5439220596714165,6.452301960063615,-1.9083799003921982
2.82,4.627974077495366,6.568418699624428,-1.9404446221290623
2.8299999999999996,4.713491426275129,6.686361567092115,-1.972870140816986
2.84,4.800501264247771,6.806151554762879,-2.005650290515108
2.8499999999999996,4.889018417363882,6.927810169843156,-2.0387917524792734
2.86,4.979070369273073,7.051359435658658,-2.0722890663855855
2.8699999999999997,5.070672425074238,7.17682152323288,-2.1061490981586415
2.88,5.163852399072072,7.304219050449617,-2.140366651377545
2.8899999999999997,5.258626078602292,7.433578334468334,-2.1749522558660415
2.9,5.355021616393542,7.565465360448818,-2.2104437440552758
