# Re omega, K.-K. Re f_xc
0.000000000000000000,0.762768586468816623
0.010000000000000000,0.762652197243370522
0.020000000000000000,0.762309152918007160
0.029999999999999999,0.761737947585777286
0.040000000000000001,0.760939305461644455
0.050000000000000003,0.759914527851002330
0.059999999999999998,0.758664860373741035
0.070000000000000007,0.757192114304621189
0.080000000000000002,0.755498272745449895
0.089999999999999997,0.753585696785769699
0.100000000000000006,0.751457100634115971
0.110000000000000001,0.749115301469349237
0.119999999999999996,0.746563242924026538
0.130000000000000004,0.743804799113108928
0.140000000000000013,0.740843306951099456
0.149999999999999994,0.737682686066255644
0.160000000000000003,0.734327287786275984
0.170000000000000012,0.730781260726249271
0.179999999999999993,0.727049272535307156
0.190000000000000002,0.723135833988318821
0.200000000000000011,0.719046392428742687
0.209999999999999992,0.714785537415595362
0.220000000000000001,0.710358510809616872
0.230000000000000010,0.705770987606266442
0.239999999999999991,0.701028188009655495
0.250000000000000000,0.696137830475647479
0.260000000000000009,0.691099327956781861
0.270000000000000018,0.685924625388387499
0.280000000000000027,0.680617757548963365
0.289999999999999980,0.675183833192151361
0.299999999999999989,0.669629527527837887
0.309999999999999998,0.663960380658955351
0.320000000000000007,0.658182462443515193
0.330000000000000016,0.652301655067022201
0.340000000000000024,0.646323488928918999
0.350000000000000033,0.640254455893516483
0.359999999999999987,0.634099452896762950
0.369999999999999996,0.627865640211713871
0.380000000000000004,0.621557743278944419
0.390000000000000013,0.615182132099874046
0.400000000000000022,0.608742989208020502
0.410000000000000031,0.602247264682824857
0.419999999999999984,0.595699840678213910
0.429999999999999993,0.589106253565660709
0.440000000000000002,0.582471251876247487
0.450000000000000011,0.575800550865964156
0.460000000000000020,0.569098373149906411
0.470000000000000029,0.562370296759068578
0.479999999999999982,0.555620716094664568
0.489999999999999991,0.548854163239884674
0.500000000000000000,0.542075375283604610
0.510000000000000009,0.535288653811348492
0.520000000000000018,0.528498114332919822
0.530000000000000027,0.521707887252775282
0.540000000000000036,0.514921832121099432
0.550000000000000044,0.508143643014059121
0.560000000000000053,0.501377141448895003
0.570000000000000062,0.494625901503869758
0.579999999999999960,0.487893417341539792
0.589999999999999969,0.481181960813296006
0.599999999999999978,0.474496418964468702
0.609999999999999987,0.467837786568807812
0.619999999999999996,0.461209913643944369
0.630000000000000004,0.454615620967626033
0.640000000000000013,0.448057116681087941
0.650000000000000022,0.441536511060439507
0.660000000000000031,0.435056628691425806
0.670000000000000040,0.428619575454500246
0.680000000000000049,0.422227060338914661
0.690000000000000058,0.415881416193572717
0.700000000000000067,0.409584106406139237
0.709999999999999964,0.403336735823331849
0.719999999999999973,0.397141393666740505
0.729999999999999982,0.390999097259175088
0.739999999999999991,0.384911363246931093
0.750000000000000000,0.378879425612233312
0.760000000000000009,0.372904218707430679
0.770000000000000018,0.366987233199699614
0.780000000000000027,0.361129470900957261
0.790000000000000036,0.355330618420487965
0.800000000000000044,0.349592844904941413
0.810000000000000053,0.343916704786870031
0.820000000000000062,0.338302352340010326
0.830000000000000071,0.332750357563571575
0.839999999999999969,0.327261279708715214
0.849999999999999978,0.321835890220414367
0.859999999999999987,0.316473941094835232
0.869999999999999996,0.311176157821716648
0.880000000000000004,0.305942669010537793
0.890000000000000013,0.300773260783354313
0.900000000000000022,0.295668325291760292
0.910000000000000031,0.290627948506682665
0.920000000000000040,0.285652239835415156
0.930000000000000049,0.280740725477043818
0.940000000000000058,0.275893526587889792
0.950000000000000067,0.271110406032799900
0.959999999999999964,0.266391476009385897
0.969999999999999973,0.261736171931948425
0.979999999999999982,0.257144739074212370
0.989999999999999991,0.252616299281101075
1.000000000000000000,0.248136217458639785
1.010000000000000009,0.243747633319717660
1.020000000000000018,0.239407481096463343
1.030000000000000027,0.235127599641047097
1.040000000000000036,0.230910948253102599
1.050000000000000044,0.226752747330973115
1.060000000000000053,0.222657242134337546
1.070000000000000062,0.218620344429083652
1.080000000000000071,0.214643231730835327
1.090000000000000080,0.210724583080876215
1.100000000000000089,0.206864720035571242
1.110000000000000098,0.203062144420273205
1.120000000000000107,0.199317130640962847
1.130000000000000115,0.195628361087341690
1.140000000000000124,0.191995940588053859
1.150000000000000133,0.188418253260872498
1.159999999999999920,0.184895686020007194
1.169999999999999929,0.181427597846140376
1.179999999999999938,0.178012339610549936
1.189999999999999947,0.174650560530873855
1.199999999999999956,0.171340636022958903
1.209999999999999964,0.168082790288645617
1.219999999999999973,0.164875322546767428
1.229999999999999982,0.161718711828600231
1.239999999999999991,0.158611284317068724
1.250000000000000000,0.155553424226063830
1.260000000000000009,0.152543339639595654
1.270000000000000018,0.149581657800234191
1.280000000000000027,0.146666467223844688
1.290000000000000036,0.143798270580518417
1.300000000000000044,0.140975560230955421
1.310000000000000053,0.138198134774356635
1.320000000000000062,0.135464735222410343
1.330000000000000071,0.132776402855123571
1.340000000000000080,0.130130517699365983
1.350000000000000089,0.127527383916323483
1.360000000000000098,0.124966096083421255
1.370000000000000107,0.122446483455328686
1.380000000000000115,0.119967629201754328
1.390000000000000124,0.117528308195441245
1.400000000000000133,0.115129704035398905
1.409999999999999920,0.112769861565691520
1.419999999999999929,0.110447128188974508
1.429999999999999938,0.108163594141690897
1.439999999999999947,0.105916540804048415
1.449999999999999956,0.103706568230182747
1.459999999999999964,0.101532526024915595
1.469999999999999973,0.099393816685741668
1.479999999999999982,0.097290348439775354
1.489999999999999991,0.095221084444396253
1.500000000000000000,0.093185743941301136
1.510000000000000009,0.091183780404352849
1.520000000000000018,0.089214540828192787
1.530000000000000027,0.087277584719461065
1.540000000000000036,0.085372458673289436
1.550000000000000044,0.083498411844905335
1.560000000000000053,0.081655125713261112
1.570000000000000062,0.079842208468306697
1.580000000000000071,0.078058936109839702
1.590000000000000080,0.076305073909287216
1.600000000000000089,0.074579736857702222
1.610000000000000098,0.072883078720956063
1.620000000000000107,0.071213155244568990
1.630000000000000115,0.069572508720294052
1.640000000000000124,0.067957772113624498
1.650000000000000133,0.066369653758904149
1.660000000000000142,0.064807603725982446
1.669999999999999929,0.063270239161459352
1.679999999999999938,0.061758960483903114
1.689999999999999947,0.060273796747027653
1.699999999999999956,0.058810950757981172
1.709999999999999964,0.057373272320206906
1.719999999999999973,0.055958571005786654
1.729999999999999982,0.054567556184098705
1.739999999999999991,0.053198793333064535
1.750000000000000000,0.051852855001187317
1.760000000000000009,0.050528556118611907
1.770000000000000018,0.049227124827074087
1.780000000000000027,0.047945233048741397
1.790000000000000036,0.046685529110155964
1.800000000000000044,0.045445614801122608
1.810000000000000053,0.044226859887816529
1.820000000000000062,0.043026997576697833
1.830000000000000071,0.041847953299909091
1.840000000000000080,0.040687146886646916
1.850000000000000089,0.039546197440208299
1.860000000000000098,0.038423057322231377
1.870000000000000107,0.037318878209432658
1.880000000000000115,0.036232194195273286
1.890000000000000124,0.035163576303939854
1.900000000000000133,0.034112075285841176
1.910000000000000142,0.033078090716345390
1.919999999999999929,0.032060599851153011
1.929999999999999938,0.031059509545150309
1.939999999999999947,0.030075114682182463
1.949999999999999956,0.029106384202755901
1.959999999999999964,0.028153702305161839
1.969999999999999973,0.027216177403612936
1.979999999999999982,0.026294258537632790
1.989999999999999991,0.025386835622783294
2.000000000000000000,0.024494502432401057
2.010000000000000231,0.023616636068132579
2.020000000000000018,0.022752757978826112
2.030000000000000249,0.021902884578251743
2.040000000000000036,0.021066812233786633
2.049999999999999822,0.020244304946149094
2.060000000000000053,0.019435109295900189
2.069999999999999840,0.018638960193536325
2.080000000000000071,0.017855534145344087
2.089999999999999858,0.017084992955445993
2.100000000000000089,0.016326773554563686
2.109999999999999876,0.015580771051989219
2.120000000000000107,0.014846754707624048
2.129999999999999893,0.014124694821233977
2.140000000000000124,0.013414304790937213
2.149999999999999911,0.012715168566424283
2.160000000000000142,0.012027474938170546
2.169999999999999929,0.011350908896290821
2.180000000000000160,0.010684955654647062
2.189999999999999947,0.010029788967019546
2.200000000000000178,0.009385121276794358
2.209999999999999964,0.008750831856161954
2.220000000000000195,0.008126917403190334
2.229999999999999982,0.007512905574903038
2.240000000000000213,0.006908905636573453
2.250000000000000000,0.006314215401397273
2.260000000000000231,0.005729464743260873
2.270000000000000018,0.005153708188640961
2.280000000000000249,0.004587450035900283
2.290000000000000036,0.004030236639428030
2.300000000000000266,0.003481832858385246
2.310000000000000053,0.002942224143521594
2.319999999999999840,0.002411293466703015
2.330000000000000071,0.001888967501258541
2.339999999999999858,0.001375081494674494
2.350000000000000089,0.000869124386939219
2.359999999999999876,0.000371649122546402
2.370000000000000107,-0.000118316486317696
2.379999999999999893,-0.000600376884641483
2.390000000000000124,-0.001074551909897619
2.399999999999999911,-0.001541102423922912
2.410000000000000142,-0.002000138496169547
2.419999999999999929,-0.002451882079076365
2.430000000000000160,-0.002896482598145738
2.439999999999999947,-0.003333914312793821
2.450000000000000178,-0.003764427306528974
2.459999999999999964,-0.004187827122944693
2.470000000000000195,-0.004604869685093535
2.479999999999999982,-0.005015224548760596
2.490000000000000213,-0.005418735156563889
2.500000000000000000,-0.005815973130637664
2.510000000000000231,-0.006206671428293760
2.520000000000000018,-0.006590958187653029
2.530000000000000249,-0.006969631651963707
2.540000000000000036,-0.007341879160153677
2.550000000000000266,-0.007708050622455922
2.560000000000000053,-0.008068465244250747
2.569999999999999840,-0.008423513991925901
2.580000000000000071,-0.008772268632410606
2.589999999999999858,-0.009115856088136568
2.600000000000000089,-0.009453910318021940
2.609999999999999876,-0.009786376118166360
2.620000000000000107,-0.010113505334369822
2.629999999999999893,-0.010435418944326600
2.640000000000000124,-0.010752210143086268
2.649999999999999911,-0.011063654869815202
2.660000000000000142,-0.011370354866300036
2.669999999999999929,-0.011672055304322212
2.680000000000000160,-0.011969161604247647
2.689999999999999947,-0.012261059401445926
2.700000000000000178,-0.012548517166962630
2.709999999999999964,-0.012831333800803686
2.720000000000000195,-0.013109606562905798
2.729999999999999982,-0.013383028502362015
2.740000000000000213,-0.013652515581547522
2.750000000000000000,-0.013917495621011775
2.760000000000000231,-0.014177848064897604
2.770000000000000018,-0.014434242021249993
2.780000000000000249,-0.014686823282822331
2.790000000000000036,-0.014934888846672911
2.800000000000000266,-0.015178754459639529
2.810000000000000053,-0.015419268818507399
2.819999999999999840,-0.015655559707002446
2.830000000000000071,-0.015887981437135639
2.839999999999999858,-0.016116644567600567
2.850000000000000089,-0.016341478153737241
2.859999999999999876,-0.016562752834979492
2.870000000000000107,-0.016780391708806786
2.879999999999999893,-0.016994459471521402
2.890000000000000124,-0.017204943103948520
2.899999999999999911,-0.017412126316866089
2.910000000000000142,-0.017615766813431379
2.919999999999999929,-0.017815959038869650
2.930000000000000160,-0.018013299461033961
2.939999999999999947,-0.018206722181506377
2.950000000000000178,-0.018397331959786354
2.959999999999999964,-0.018584756207119833
2.970000000000000195,-0.018769421409198944
2.979999999999999982,-0.018950377738005807
2.990000000000000213,-0.019128915942881075
3.000000000000000000,-0.019303849892228362
3.010000000000000231,-0.019476174230683971
3.020000000000000018,-0.019645835069755126
3.030000000000000249,-0.019812509720366623
3.040000000000000036,-0.019976317168072452
3.050000000000000266,-0.020137304716778947
3.060000000000000053,-0.020295566028869987
3.070000000000000284,-0.020451488564844373
3.080000000000000071,-0.020604528320584781
3.089999999999999858,-0.020754985223194366
3.100000000000000089,-0.020902712153967981
3.109999999999999876,-0.021048048157724597
3.120000000000000107,-0.021190865190207044
3.129999999999999893,-0.021331340933222191
3.140000000000000124,-0.021469356810598385
3.149999999999999911,-0.021605215863261185
3.160000000000000142,-0.021738381266710325
3.169999999999999929,-0.021869362897271202
3.180000000000000160,-0.021998363810179215
3.189999999999999947,-0.022124846346542010
3.200000000000000178,-0.022248938864688761
3.209999999999999964,-0.022371144987352945
3.220000000000000195,-0.022491310020977134
3.229999999999999982,-0.022609151464687584
3.240000000000000213,-0.022724913403275693
3.250000000000000000,-0.022838586770333708
3.260000000000000231,-0.022950659724104403
3.270000000000000018,-0.023060266755278846
3.280000000000000249,-0.023167841910328984
3.290000000000000036,-0.023273712823685445
3.300000000000000266,-0.023377865623820940
3.310000000000000053,-0.023479887079425405
3.320000000000000284,-0.023580018526212148
3.330000000000000071,-0.023678614669564838
3.339999999999999858,-0.023775089196270180
3.350000000000000089,-0.023870454326528991
3.359999999999999876,-0.023963024175747055
3.370000000000000107,-0.024054088373220948
3.379999999999999893,-0.024143817526760352
3.390000000000000124,-0.024232350836400168
3.399999999999999911,-0.024318426928950688
3.410000000000000142,-0.024403194995471219
3.419999999999999929,-0.024486340599528044
3.430000000000000160,-0.024568220987144070
3.439999999999999947,-0.024648179644799560
3.450000000000000178,-0.024726282080553233
3.459999999999999964,-0.024803240116792247
3.470000000000000195,-0.024879076085813526
3.479999999999999982,-0.024953129902766848
3.490000000000000213,-0.025025386544420210
3.500000000000000000,-0.025096434218748215
3.510000000000000231,-0.025166599261526243
3.520000000000000018,-0.025234944615028159
3.530000000000000249,-0.025301395468721934
3.540000000000000036,-0.025367163980811677
3.550000000000000266,-0.025431586826667869
3.560000000000000053,-0.025494782515054767
3.570000000000000284,-0.025556237550320344
3.580000000000000071,-0.025616778954047296
3.589999999999999858,-0.025675764110056273
3.600000000000000089,-0.025734145792775883
3.609999999999999876,-0.025790884620347506
3.620000000000000107,-0.025846012097745785
3.629999999999999893,-0.025900462490932179
3.640000000000000124,-0.025953804640579441
3.649999999999999911,-0.026005936823002097
3.660000000000000142,-0.026056424015643821
3.669999999999999929,-0.026106188127245959
3.680000000000000160,-0.026155237480204940
3.689999999999999947,-0.026202680839890125
3.700000000000000178,-0.026248960907217116
3.709999999999999964,-0.026294457288388036
3.720000000000000195,-0.026338799979937957
3.729999999999999982,-0.026382314381358903
3.740000000000000213,-0.026424586664105163
3.750000000000000000,-0.026466051825225864
3.760000000000000231,-0.026506444941033578
3.770000000000000018,-0.026545896265790930
3.780000000000000249,-0.026584261910740901
3.790000000000000036,-0.026621657096159167
3.800000000000000266,-0.026658330387053952
3.810000000000000053,-0.026693966049624342
3.820000000000000284,-0.026728753053892530
3.830000000000000071,-0.026762571821102102
3.839999999999999858,-0.026795656199403054
3.850000000000000089,-0.026827768998199625
3.859999999999999876,-0.026858995780679570
3.870000000000000107,-0.026889442365391716
3.879999999999999893,-0.026918994370931829
3.890000000000000124,-0.026947810660481405
3.899999999999999911,-0.026975731932538646
3.910000000000000142,-0.027002777503125689
3.919999999999999929,-0.027029251119490404
3.930000000000000160,-0.027054923817008372
3.939999999999999947,-0.027079834247869913
3.950000000000000178,-0.027103752943305824
3.959999999999999964,-0.027127037890472147
3.970000000000000195,-0.027149745954887700
3.979999999999999982,-0.027171652467930123
3.990000000000000213,-0.027192722749888806
4.000000000000000000,-0.027213253306675414
4.009999999999999787,-0.027232946134254338
4.020000000000000462,-0.027251976725002350
4.030000000000000249,-0.027270437783899693
4.040000000000000036,-0.027288197688881397
4.049999999999999822,-0.027305245079309350
4.060000000000000497,-0.027321596339954474
4.070000000000000284,-0.027337542633248571
4.080000000000000071,-0.027352679577010219
4.089999999999999858,-0.027367284274914156
4.099999999999999645,-0.027381261722317963
4.110000000000000320,-0.027394380135148999
4.120000000000000107,-0.027407168325120003
4.129999999999999893,-0.027419388148859348
4.139999999999999680,-0.027430970051120621
4.150000000000000355,-0.027442071779430571
4.160000000000000142,-0.027452558015162290
4.169999999999999929,-0.027462311826047314
4.179999999999999716,-0.027471257589355858
4.190000000000000391,-0.027480058786779445
4.200000000000000178,-0.027488201236678233
4.209999999999999964,-0.027496148229958585
4.219999999999999751,-0.027503208918426780
4.230000000000000426,-0.027510818963786588
4.240000000000000213,-0.027516587480244110
4.250000000000000000,-0.027522645199173149
4.259999999999999787,-0.027527887228819999
4.270000000000000462,-0.027532132364874607
4.280000000000000249,-0.027536426853205353
4.290000000000000036,-0.027540301235263992
4.299999999999999822,-0.027543874953445537
4.310000000000000497,-0.027547029893563797
4.320000000000000284,-0.027549320430540924
4.330000000000000071,-0.027551481919395975
4.339999999999999858,-0.027552869060830570
4.350000000000000533,-0.027554039935597765
4.360000000000000320,-0.027554901612766199
4.370000000000000107,-0.027555269887212200
4.379999999999999893,-0.027555331245341402
4.389999999999999680,-0.027554615563608408
4.400000000000000355,-0.027553735048472736
4.410000000000000142,-0.027552533738435685
4.419999999999999929,-0.027550858090039983
4.429999999999999716,-0.027548866603285250
4.440000000000000391,-0.027546176869902943
4.450000000000000178,-0.027543404900626199
4.459999999999999964,-0.027540188878600297
4.469999999999999751,-0.027536432690882632
4.480000000000000426,-0.027532648401071433
4.490000000000000213,-0.027528358365914881
4.500000000000000000,-0.027523689805353069
4.509999999999999787,-0.027518727327216407
4.520000000000000462,-0.027513267261999499
4.530000000000000249,-0.027507602740230844
4.540000000000000036,-0.027501734079393554
4.549999999999999822,-0.027495413207043150
4.560000000000000497,-0.027489024367402293
4.570000000000000284,-0.027481988676337381
4.580000000000000071,-0.027474846688483139
4.589999999999999858,-0.027467349218975166
4.600000000000000533,-0.027458994760793567
4.610000000000000320,-0.027451150522223400
4.620000000000000107,-0.027442348902573403
4.629999999999999893,-0.027433653293355384
4.639999999999999680,-0.027424675247191076
4.650000000000000355,-0.027416036517068035
4.660000000000000142,-0.027406508210700516
4.669999999999999929,-0.027396722527060727
4.679999999999999716,-0.027386473582764331
4.690000000000000391,-0.027375509627962875
