# omega (a.u.), Re alpha(w), Im alpha(w)
0.000000000000000000e+00,0.000000000000000000e+00,0.000000000000000000e+00
1.841148405593937346e-02,1.072302026884211160e-05,-2.518457127979021356e-04
3.682296811187874691e-02,4.263789642290585389e-05,-5.013582617749283736e-04
5.523445216781812384e-02,9.500135976652418273e-05,-7.462691813081438795e-04
7.364593622375749382e-02,1.666359137786055909e-04,-9.844357899954213776e-04
9.205742027969686381e-02,2.560120131648308938e-04,-1.213895389212943550e-03
1.104689043356362477e-01,3.613460494952600152e-04,-1.432909925655447263e-03
1.288803883915756177e-01,4.807018879939438838e-04,-1.639999300976574016e-03
1.472918724475149876e-01,6.120852616014961674e-04,-1.833962441363937114e-03
1.657033565034543576e-01,7.535234015836368704e-04,-2.013886157602452244e-03
1.841148405593937276e-01,9.031258886559576961e-04,-2.179142636065000815e-03
2.025263246153330976e-01,1.059126007840727494e-03,-2.329377034023273878e-03
2.209378086712724953e-01,1.219904371675815296e-03,-2.464487072229357926e-03
2.393492927272118653e-01,1.383998069956900298e-03,-2.584596719362843367e-03
2.577607767831512353e-01,1.550099194574619315e-03,-2.690026068316101349e-03
2.761722608390905775e-01,1.717046494324771504e-03,-2.781259352567531495e-03
2.945837448950299753e-01,1.883813388858610917e-03,-2.858912789510722769e-03
3.129952289509693730e-01,2.049494835538316281e-03,-2.923703614208037881e-03
3.314067130069087153e-01,2.213294764329810146e-03,-2.976421323580015141e-03
3.498181970628481130e-01,2.374515082653897834e-03,-3.017901820415562660e-03
3.682296811187874552e-01,2.532546664845622235e-03,-3.049004851463637134e-03
3.866411651747268530e-01,2.686862304463254886e-03,-3.070594887241575189e-03
4.050526492306661952e-01,2.837011322618143965e-03,-3.083525397972587331e-03
4.234641332866055929e-01,2.982615376327148356e-03,-3.088626339097368372e-03
4.418756173425449907e-01,3.123364972655555925e-03,-3.086694565950339614e-03
4.602871013984843329e-01,3.259016237559851561e-03,-3.078486843112126625e-03
4.786985854544237307e-01,3.389387582756644805e-03,-3.064715091520792654e-03
4.971100695103630174e-01,3.514356032234597534e-03,-3.046043517720824993e-03
5.155215535663024706e-01,3.633853089846419190e-03,-3.023087287541984837e-03
5.339330376222417573e-01,3.747860134766162633e-03,-2.996412435047397793e-03
5.523445216781811551e-01,3.856403413038316224e-03,-2.966536732006949933e-03
5.707560057341205528e-01,3.959548747416164784e-03,-2.933931279838327289e-03
5.891674897900599506e-01,4.057396115204772377e-03,-2.899022622341943835e-03
6.075789738459992373e-01,4.150074248929912397e-03,-2.862195211922356070e-03
6.259904579019387461e-01,4.237735402922411000e-03,-2.823794093297888642e-03
6.444019419578780328e-01,4.320550406216801774e-03,-2.784127696423975735e-03
6.628134260138174305e-01,4.398704093841878521e-03,-2.743470654332347443e-03
6.812249100697567172e-01,4.472391178922667521e-03,-2.702066581905767859e-03
6.996363941256962260e-01,4.541812600104387296e-03,-2.660130768511713602e-03
7.180478781816355127e-01,4.607172354581617196e-03,-2.617852751242569827e-03
7.364593622375749105e-01,4.668674807424756656e-03,-2.575398746627465159e-03
7.548708462935143082e-01,4.726522453156883040e-03,-2.532913927470428934e-03
7.732823303494537059e-01,4.780914095363903230e-03,-2.490524538292581552e-03
7.916938144053929927e-01,4.832043403934306418e-03,-2.448339848044807452e-03
8.101052984613323904e-01,4.880097806607237507e-03,-2.406453942607563422e-03
8.285167825172717881e-01,4.925257671119905901e-03,-2.364947362363838644e-03
8.469282665732111859e-01,4.967695735701963163e-03,-2.323888592039656097e-03
8.653397506291504726e-01,5.007576748369961181e-03,-2.283335411239010779e-03
8.837512346850899814e-01,5.045057278944897923e-03,-2.243336114809843344e-03
9.021627187410292681e-01,5.080285671566729666e-03,-2.203930612489984724e-03
9.205742027969686658e-01,5.113402109432967427e-03,-2.165151417298428159e-03
9.389856868529079525e-01,5.144538767342120983e-03,-2.127024531938702216e-03
9.573971709088474613e-01,5.173820031248627799e-03,-2.089570242131601023e-03
9.758086549647867480e-01,5.201362767353361581e-03,-2.052803825344103571e-03
9.942201390207260348e-01,5.227276626225707892e-03,-2.016736182868327995e-03
1.012631623076665432e+00,5.251664370068230038e-03,-1.981374402658337384e-03
1.031043107132604941e+00,5.274622213502494841e-03,-1.946722259774969453e-03
1.049454591188544228e+00,5.296240170194673261e-03,-1.912780660736020143e-03
1.067866075244483515e+00,5.316602399281686840e-03,-1.879548037531902915e-03
1.086277559300423023e+00,5.335787546933224226e-03,-1.847020696553504761e-03
1.104689043356362310e+00,5.353869079524111937e-03,-1.815193127194022127e-03
1.123100527412301597e+00,5.370915605827815409e-03,-1.784058274433147255e-03
1.141512011468241106e+00,5.386991186402621465e-03,-1.753607779291401067e-03
1.159923495524180392e+00,5.402155628954825352e-03,-1.723832190654756968e-03
1.178334979580119901e+00,5.416464768951982992e-03,-1.694721151614450973e-03
1.196746463636059188e+00,5.429970735143501738e-03,-1.666263563142755377e-03
1.215157947691998475e+00,5.442722199944974304e-03,-1.638447727630916798e-03
1.233569431747937761e+00,5.454764614870792269e-03,-1.611261474548668924e-03
1.251980915803877492e+00,5.466140431370414624e-03,-1.584692270243704976e-03
1.270392399859816779e+00,5.476889307548363055e-03,-1.558727313682394498e-03
1.288803883915756066e+00,5.487048301335318255e-03,-1.533353619737730204e-03
1.307215367971695352e+00,5.496652050734671113e-03,-1.508558091455315230e-03
1.325626852027634861e+00,5.505732941804010808e-03,-1.484327582571095226e-03
1.344038336083574148e+00,5.514321265046322543e-03,-1.460648951414068994e-03
1.362449820139513434e+00,5.522445360887869026e-03,-1.437509107201549296e-03
1.380861304195453165e+00,5.530131754911194082e-03,-1.414895049622392565e-03
1.399272788251392452e+00,5.537405283495011772e-03,-1.392793902503554121e-03
1.417684272307331739e+00,5.544289210490615377e-03,-1.371192942266074438e-03
1.436095756363271025e+00,5.550805335538311347e-03,-1.350079621797168781e-03
1.454507240419210312e+00,5.556974094598639800e-03,-1.329441590294280903e-03
1.472918724475149821e+00,5.562814653242985005e-03,-1.309266709574025741e-03
1.491330208531089108e+00,5.568344993217403532e-03,-1.289543067282902539e-03
1.509741692587028616e+00,5.573581992762585008e-03,-1.270258987396842261e-03
1.528153176642967903e+00,5.578541501142617216e-03,-1.251403038352415535e-03
1.546564660698907412e+00,5.583238407805383129e-03,-1.232964039113128123e-03
1.564976144754846699e+00,5.587686706569484907e-03,-1.214931063439324797e-03
1.583387628810785985e+00,5.591899555204538595e-03,-1.197293442599145150e-03
1.601799112866725272e+00,5.595889330746740484e-03,-1.180040766730426150e-03
1.620210596922664781e+00,5.599667680866261821e-03,-1.163162885038959574e-03
1.638622080978604290e+00,5.603245571580387809e-03,-1.146649904996797573e-03
1.657033565034543576e+00,5.606633331584817519e-03,-1.130492190685010619e-03
1.675445049090482863e+00,5.609840693454853054e-03,-1.114680360408202252e-03
1.693856533146422372e+00,5.612876831949635201e-03,-1.099205283692905339e-03
1.712268017202361658e+00,5.615750399635134095e-03,-1.084058077768521814e-03
1.730679501258300945e+00,5.618469560024649118e-03,-1.069230103617535999e-03
1.749090985314240232e+00,5.621042018421403864e-03,-1.054712961671140691e-03
1.767502469370179963e+00,5.623475050632543472e-03,-1.040498487217049201e-03
1.785913953426119249e+00,5.625775529712111374e-03,-1.026578745577932722e-03
1.804325437482058536e+00,5.627949950877598161e-03,-1.012946027111576467e-03
1.822736921537997823e+00,5.630004454733990131e-03,-9.995928420773335290e-04
1.841148405593937332e+00,5.631944848928886228e-03,-9.865119154076435956e-04
1.859559889649876618e+00,5.633776628352822960e-03,-9.736961814183336126e-04
1.877971373705815905e+00,5.635504993990422470e-03,-9.611387784868544604e-04
1.896382857761755192e+00,5.637134870519113633e-03,-9.488330437236259032e-04
1.914794341817694923e+00,5.638670922746135718e-03,-9.367725076581578025e-04
1.933205825873634209e+00,5.640117570966250889e-03,-9.249508889584555794e-04
1.951617309929573496e+00,5.641479005317275724e-03,-9.133620891995188930e-04
1.970028793985512783e+00,5.642759199204427922e-03,-9.020001876942823410e-04
1.988440278041452070e+00,5.643961921858937567e-03,-8.908594363982369133e-04
2.006851762097391578e+00,5.645090750091760583e-03,-8.799342548970838767e-04
2.025263246153330865e+00,5.646149079298405996e-03,-8.692192254851252142e-04
2.043674730209270596e+00,5.647140133767055738e-03,-8.587090883406563310e-04
2.062086214265209883e+00,5.648066976337792061e-03,-8.483987368033413115e-04
2.080497698321149169e+00,5.648932517457712701e-03,-8.382832127574656135e-04
2.098909182377088456e+00,5.649739523673035467e-03,-8.283577021239725124e-04
2.117320666433027743e+00,5.650490625596579081e-03,-8.186175304633577007e-04
2.135732150488967029e+00,5.651188325385785721e-03,-8.090581586907621145e-04
2.154143634544906316e+00,5.651835003764459249e-03,-7.996751789039653353e-04
2.172555118600846047e+00,5.652432926618520398e-03,-7.904643103244378584e-04
2.190966602656785334e+00,5.652984251194119111e-03,-7.814213953511373783e-04
2.209378086712724620e+00,5.653491031924240233e-03,-7.725423957263222391e-04
2.227789570768663907e+00,5.653955225908485066e-03,-7.638233888123316774e-04
2.246201054824603194e+00,5.654378698068307854e-03,-7.552605639779669776e-04
2.264612538880542925e+00,5.654763225999145763e-03,-7.468502190928794386e-04
2.283024022936482211e+00,5.655110504538584174e-03,-7.385887571281590878e-04
2.301435506992421498e+00,5.655422150069237645e-03,-7.304726828611511104e-04
2.319846991048360785e+00,5.655699704572912309e-03,-7.224985996823972932e-04
2.338258475104300516e+00,5.655944639452031679e-03,-7.146632065024763987e-04
2.356669959160239802e+00,5.656158359132882826e-03,-7.069632947564528751e-04
2.375081443216179089e+00,5.656342204464521670e-03,-6.993957455035571154e-04
2.393492927272118376e+00,5.656497455925875092e-03,-6.919575266196972742e-04
2.411904411328057662e+00,5.656625336653097955e-03,-6.846456900803609118e-04
2.430315895383996949e+00,5.656727015298278552e-03,-6.774573693314508548e-04
2.448727379439936236e+00,5.656803608729562595e-03,-6.703897767456012914e-04
2.467138863495875523e+00,5.656856184582804807e-03,-6.634402011615262969e-04
2.485550347551814809e+00,5.656885763673284717e-03,-6.566060055039677325e-04
2.503961831607754984e+00,5.656893322276237458e-03,-6.498846244818323346e-04
2.522373315663694271e+00,5.656879794284050932e-03,-6.432735623621440267e-04
2.540784799719633558e+00,5.656846073247108996e-03,-6.367703908174637221e-04
2.559196283775572844e+00,5.656793014305734786e-03,-6.303727468444810357e-04
2.577607767831512131e+00,5.656721436019203353e-03,-6.240783307515146341e-04
2.596019251887451418e+00,5.656632122097974072e-03,-6.178849042127117263e-04
2.614430735943390705e+00,5.656525823044996661e-03,-6.117902883867834974e-04
2.632842219999330435e+00,5.656403257710987051e-03,-6.057923620981697701e-04
2.651253704055269722e+00,5.656265114768914588e-03,-5.998890600785648872e-04
2.669665188111209009e+00,5.656112054112191756e-03,-5.940783712668124862e-04
2.688076672167148296e+00,5.655944708180988233e-03,-5.883583371652050236e-04
2.706488156223087582e+00,5.655763683220740683e-03,-5.827270502503006716e-04
2.724899640279026869e+00,5.655569560476488185e-03,-5.771826524364109725e-04
2.743311124334966156e+00,5.655362897326969389e-03,-5.717233335899692343e-04
2.761722608390906331e+00,5.655144228361574411e-03,-5.663473300930511227e-04
2.780134092446845617e+00,5.654914066403396271e-03,-5.610529234543595650e-04
2.798545576502784904e+00,5.654672903481314412e-03,-5.558384389660477693e-04
2.816957060558724191e+00,5.654421211754094914e-03,-5.507022444048057744e-04
2.835368544614663477e+00,5.654159444388827567e-03,-5.456427487756789841e-04
2.853780028670602764e+00,5.653888036396378242e-03,-5.406584010971464491e-04
2.872191512726542051e+00,5.653607405426154184e-03,-5.357476892260315451e-04
2.890602996782481338e+00,5.653317952522340234e-03,-5.309091387208588917e-04
2.909014480838420624e+00,5.653020062843559269e-03,-5.261413117423320790e-04
2.927425964894359911e+00,5.652714106348199867e-03,-5.214428059896393953e-04
2.945837448950299642e+00,5.652400438446838864e-03,-5.168122536713407262e-04
2.964248933006238929e+00,5.652079400623739869e-03,-5.122483205096437604e-04
2.982660417062178215e+00,5.651751321029065307e-03,-5.077497047768972632e-04
3.001071901118117502e+00,5.651416515043133394e-03,-5.033151363631931455e-04
3.019483385174057233e+00,5.651075285814313384e-03,-4.989433758739912845e-04
3.037894869229996520e+00,5.650727924771965088e-03,-4.946332137567266939e-04
3.056306353285935806e+00,5.650374712115459157e-03,-4.903834694553939897e-04
3.074717837341875537e+00,5.650015917280807286e-03,-4.861929905921406870e-04
3.093129321397814824e+00,5.649651799385832160e-03,-4.820606521749337160e-04
3.111540805453754110e+00,5.649282607654956996e-03,-4.779853558303949327e-04
3.129952289509693397e+00,5.648908581824868894e-03,-4.739660290609410266e-04
3.148363773565632684e+00,5.648529952531588551e-03,-4.700016245253872986e-04
3.166775257621571971e+00,5.648146941680444282e-03,-4.660911193422053551e-04
3.185186741677511257e+00,5.647759762799147223e-03,-4.622335144146584303e-04
3.203598225733450544e+00,5.647368621375357250e-03,-4.584278337770640675e-04
3.222009709789389831e+00,5.646973715179211435e-03,-4.546731239614548183e-04
3.240421193845329562e+00,5.646575234571646860e-03,-4.509684533839463760e-04
3.258832677901268848e+00,5.646173362798988758e-03,-4.473129117501336194e-04
3.277244161957208579e+00,5.645768276274965372e-03,-4.437056094788725032e-04
3.295655646013147866e+00,5.645360144850153014e-03,-4.401456771438165723e-04
3.314067130069087153e+00,5.644949132069895618e-03,-4.366322649321096195e-04
3.332478614125026439e+00,5.644535395421018849e-03,-4.331645421196540606e-04
3.350890098180965726e+00,5.644119086568052598e-03,-4.297416965623910234e-04
3.369301582236905013e+00,5.643700351579193468e-03,-4.263629342030573143e-04
3.387713066292844744e+00,5.643279331142785245e-03,-4.230274785928956477e-04
3.406124550348784030e+00,5.642856160774486519e-03,-4.197345704278185362e-04
3.424536034404723317e+00,5.642430971015834941e-03,-4.164834670985413678e-04
3.442947518460662604e+00,5.642003887624385920e-03,-4.132734422542185698e-04
3.461359002516601890e+00,5.641575031755849921e-03,-4.101037853791331881e-04
3.479770486572541177e+00,5.641144520138755697e-03,-4.069738013820086938e-04
3.498181970628480464e+00,5.640712465241783449e-03,-4.038828101975212620e-04
3.516593454684419751e+00,5.640278975434175578e-03,-4.008301463996127249e-04
3.535004938740359925e+00,5.639844155139607518e-03,-3.978151588262146435e-04
3.553416422796299212e+00,5.639408104983726841e-03,-3.948372102150090701e-04
3.571827906852238499e+00,5.638970921935601739e-03,-3.918956768498640399e-04
3.590239390908177786e+00,5.638532699443557679e-03,-3.889899482175937029e-04
3.608650874964117072e+00,5.638093527565426512e-03,-3.861194266747131195e-04
3.627062359020056359e+00,5.637653493093523760e-03,-3.832835271238528097e-04
3.645473843075995646e+00,5.637212679674642908e-03,-3.804816766995320265e-04
3.663885327131934933e+00,5.636771167925359871e-03,-3.777133144629781251e-04
3.682296811187874663e+00,5.636329035542468960e-03,-3.749778911057082909e-04
3.700708295243813950e+00,5.635886357409373472e-03,-3.722748686615895658e-04
3.719119779299753237e+00,5.635443205697991155e-03,-3.696037202271053096e-04
3.737531263355692523e+00,5.634999649966787767e-03,-3.669639296895672908e-04
3.755942747411631810e+00,5.634555757254999450e-03,-3.643549914630210594e-04
3.774354231467571097e+00,5.634111592173066466e-03,-3.617764102315994637e-04
3.792765715523510384e+00,5.633667216989594884e-03,-3.592277007000902844e-04
3.811177199579450559e+00,5.633222691714966784e-03,-3.567083873514906322e-04
3.829588683635389845e+00,5.632778074181781121e-03,-3.542180042113251930e-04
3.848000167691329132e+00,5.632333420121919676e-03,-3.517560946185228129e-04
3.866411651747268419e+00,5.631888783241126295e-03,-3.493222110026402739e-04
3.884823135803207705e+00,5.631444215290304887e-03,-3.469159146672406513e-04
3.903234619859146992e+00,5.630999766134318560e-03,-3.445367755792318556e-04
3.921646103915086279e+00,5.630555483818183195e-03,-3.421843721639822918e-04
3.940057587971025566e+00,5.630111414630630320e-03,-3.398582911060372361e-04
3.958469072026964852e+00,5.629667603165466015e-03,-3.375581271552602347e-04
3.976880556082904139e+00,5.629224092380449157e-03,-3.352834829382355395e-04
3.995292040138843870e+00,5.628780923654095811e-03,-3.330339687747723115e-04
4.013703524194783157e+00,5.628338136840285721e-03,-3.308092024993511057e-04
4.032115008250721999e+00,5.627895770320929386e-03,-3.286088092873662696e-04
4.050526492306661730e+00,5.627453861056537845e-03,-3.264324214860188649e-04
4.068937976362601461e+00,5.627012444635180050e-03,-3.242796784497167795e-04
4.087349460418541192e+00,5.626571555319332535e-03,-3.221502263798516020e-04
4.105760944474480034e+00,5.626131226091243311e-03,-3.200437181688148345e-04
4.124172428530419765e+00,5.625691488696599185e-03,-3.179598132481334773e-04
4.142583912586358608e+00,5.625252373686545973e-03,-3.158981774405975377e-04
4.160995396642298338e+00,5.624813910458133573e-03,-3.138584828162626402e-04
4.179406880698237181e+00,5.624376127293596178e-03,-3.118404075522133003e-04
4.197818364754176912e+00,5.623939051397719956e-03,-3.098436357959757849e-04
4.216229848810116643e+00,5.623502708934430099e-03,-3.078678575324732790e-04
4.234641332866055485e+00,5.623067125061572032e-03,-3.059127684544194902e-04
4.253052816921995216e+00,5.622632323964860818e-03,-3.039780698360490486e-04
4.271464300977934059e+00,5.622198328890305741e-03,-3.020634684100920566e-04
4.289875785033873790e+00,5.621765162175653904e-03,-3.001686762478914688e-04
4.308287269089812632e+00,5.621332845280732279e-03,-2.982934106425796038e-04
4.326698753145752363e+00,5.620901398816635294e-03,-2.964373939952202734e-04
4.345110237201692094e+00,5.620470842573949653e-03,-2.946003537038339136e-04
4.363521721257631825e+00,5.620041195549946994e-03,-2.927820220552241324e-04
4.381933205313570667e+00,5.619612475974912653e-03,-2.909821361195205625e-04
4.400344689369510398e+00,5.619184701337452681e-03,-2.892004376473684144e-04
4.418756173425449241e+00,5.618757888408994206e-03,-2.874366729696826561e-04
4.437167657481388972e+00,5.618332053267376808e-03,-2.856905928998981336e-04
4.455579141537327814e+00,5.617907211319742196e-03,-2.839619526386439686e-04
4.473990625593267545e+00,5.617483377324509683e-03,-2.822505116807753358e-04
4.492402109649206388e+00,5.617060565412685530e-03,-2.805560337246937211e-04
4.510813593705146118e+00,5.616638789108408143e-03,-2.788782865838954311e-04
4.529225077761085849e+00,5.616218061348767290e-03,-2.772170421006842794e-04
4.547636561817024692e+00,5.615798394503051724e-03,-2.755720760619881121e-04
4.566048045872964423e+00,5.615379800391195365e-03,-2.739431681172212782e-04
4.584459529928904153e+00,5.614962290301775058e-03,-2.723301016981389947e-04
4.602871013984842996e+00,5.614545875009179995e-03,-2.707326639406243038e-04
4.621282498040782727e+00,5.614130564790481906e-03,-2.691506456083578541e-04
4.639693982096721570e+00,5.613716369441469102e-03,-2.675838410183208516e-04
4.658105466152661300e+00,5.613303298292365677e-03,-2.660320479680743674e-04
4.676516950208601031e+00,5.612891360222797832e-03,-2.644950676647757001e-04
4.694928434264539874e+00,5.612480563676540760e-03,-2.629727046558776905e-04
4.713339918320479605e+00,5.612070916675531741e-03,-2.614647667614691394e-04
4.731751402376419335e+00,5.611662426833552778e-03,-2.599710650082112792e-04
4.750162886432358178e+00,5.611255101369396273e-03,-2.584914135648287204e-04
4.768574370488297909e+00,5.610848947119715865e-03,-2.570256296791093909e-04
4.786985854544236751e+00,5.610443970551229342e-03,-2.555735336163801824e-04
4.805397338600176482e+00,5.610040177772768026e-03,-2.541349485994114131e-04
