q/kF, < omega_p(q)**3 >/wp(0)**3, Sum rule/wp(0)**3, < (omega/wp(0))**3*S > - SR
0.01,9.514980296415851e-06,1.0632252531446716e-05,-1.1172722350308655e-06
0.02,4.2132511824903866e-05,4.253250388059468e-05,-3.9999205569081134e-07
0.03,9.566438516520906e-05,9.567545092711133e-05,-1.106576190226837e-08
0.04,0.00017005433559933594,0.0001700455297815139,8.80581782204638e-09
0.05,0.0002656768710422575,0.00026518826899682744,4.886020454300424e-07
0.060000000000000005,0.0003825182637436697,0.0003805849793712141,1.933284372455566e-06
0.06999999999999999,0.0005205538995644178,0.0005165129195591962,4.04098000522169e-06
0.08,0.0006797714772733293,0.000673721753088166,6.049724185163276e-06
0.09,0.0008601401966110821,0.0008519643043999525,8.175892211129653e-06
0.09999999999999999,0.0010616358632259794,0.0010507130997720621,1.0922763453917288e-05
0.11,0.0012842275812528163,0.0012700698794582636,1.4157701794552694e-05
0.12,0.0015278809962290252,0.0015093123729729258,1.8568623256099348e-05
0.13,0.0017925563095180404,0.0017691191095708368,2.343719994720361e-05
0.14,0.002078210510367562,0.002048543196958653,2.9667313408909216e-05
0.15000000000000002,0.002384794675319051,0.002347921696337923,3.687297898112823e-05
0.16,0.0027122556860636336,0.0026670325106822185,4.522317538141517e-05
0.17,0.0030605374196543164,0.003005488222690939,5.504919696337719e-05
0.18000000000000002,0.0034295813971191957,0.0033639933070194416,6.558809009975415e-05
0.19,0.003819335026774665,0.0037421417588096558,7.719326796500926e-05
0.2,0.004229730441682469,0.004138883148018583,9.084729366388641e-05
0.21000000000000002,0.004660708480403179,0.004554435276171506,0.00010627320423167372
0.22,0.005112204065466406,0.004987965611463984,0.00012423845400242207
0.23,0.005584143527549239,0.0054403120568247655,0.0001438314707244738
0.24000000000000002,0.006076465656392645,0.005907097654017074,0.0001693680023755707
0.25,0.006589083078489546,0.006380378440987641,0.0002087046375019051
0.26,0.007121928308091473,0.006861374024451773,0.0002605542836396999
0.27,0.007674903363829997,0.007346077936519843,0.0003288254273101539
0.28,0.008247934238411506,0.007829641084990327,0.0004182931534211787
0.29000000000000004,0.008840912190478563,0.008323214629013712,0.0005176975614648513
0.3,0.009453757107395648,0.008825493657839792,0.0006282634495558565
0.31,0.010086359716363538,0.009313733825614156,0.0007726258907493812
0.32,0.01073860440233367,0.00980234394959032,0.000936260452743351
0.33,0.011410402955052882,0.010293575121597273,0.0011168278334556091
0.34,0.012101632814118808,0.010793501411629637,0.001308131402489171
0.35000000000000003,0.01281217775252916,0.011305109371771864,0.0015070683807572958
0.36000000000000004,0.013541904522272026,0.011851531236847008,0.001690373285425019
0.37,0.01429071575967675,0.012379752071940085,0.0019109636877366644
0.38,0.015058471782262451,0.012916557011812933,0.0021419147704495184
0.39,0.01584504206530669,0.013501159684846852,0.0023438823804598392
0.4,0.016650292562895814,0.014476007762898818,0.002174284799996996
0.41000000000000003,0.01747408571993569,0.015098752794036883,0.002375332925898808
0.42000000000000004,0.018316280469295527,0.01572907499039212,0.002587205478903405
0.43,0.019176751253333606,0.016364337774077496,0.00281241347925611
0.44,0.020055312895645848,0.017059477544641856,0.002995835351003992
0.45,0.02095183195299034,0.017767391854001082,0.003184440098989258
0.46,0.021866153354535803,0.018478173036699803,0.0033879803178359993
0.47000000000000003,0.022798141153940125,0.019186071050251663,0.0036120701036884625
0.48000000000000004,0.02374758908020998,0.019902796924725064,0.0038447921554849163
0.49,0.024714377666173272,0.020625649732016,0.004088727934157273
0.5,0.02569829003489653,0.021356780724890407,0.004341509310006122
0.51,0.026699203482428126,0.022089318736366687,0.00460988474606144
0.52,0.027716890353825425,0.02286793757527918,0.004848952778546245
0.53,0.028751224947866832,0.0236705113718424,0.005080713576024434
0.54,0.029801968662879968,0.02448412099186357,0.005317847671016399
0.55,0.030868993062069694,0.02530205028164581,0.005566942780423884
0.56,0.031952048431750604,0.026130280783908125,0.00582176764784248
0.5700000000000001,0.03305100389776524,0.026969774631334653,0.006081229266430586
0.5800000000000001,0.03416563238527121,0.027820203944488267,0.006345428440782945
0.59,0.03529573409835349,0.0286819539363753,0.0066137801619781875
0.6,0.03644106994808401,0.029550946614960057,0.00689012333312395
0.61,0.037601504391469934,0.03042585283786808,0.0071756515536018535
0.62,0.03877679281094942,0.03129930081672521,0.007477491994224213
0.63,0.03996672228945168,0.03217517682182127,0.0077915454676304105
0.64,0.04117107671381947,0.03306395301647784,0.00810712369734163
0.65,0.042389636819522576,0.033985427133698745,0.008404209685823831
0.66,0.04362213713037522,0.034931051762934644,0.00869108536744058
0.67,0.04486843721398266,0.03588765164570642,0.008980785568276244
0.68,0.0461282666885501,0.03685023062735491,0.009278036061195191
0.6900000000000001,0.04740139414127075,0.03781622208890266,0.009585172052368092
0.7000000000000001,0.048687585255008256,0.03879209422200235,0.009895491033005903
0.7100000000000001,0.04998660286938257,0.039779573840485395,0.010207029028897176
0.72,0.05129820704515593,0.04077614591207673,0.0105220611330792
0.73,0.052622155131067556,0.04177856742794327,0.01084358770312429
0.74,0.053958255154147754,0.04278781021167947,0.011170444942468286
0.75,0.05530615401355567,0.04380740314612257,0.0114987508674331
0.76,0.056665653323658464,0.04483189489764295,0.011833758426015514
0.77,0.05803650034449725,0.04586772113841837,0.01216877920607888
0.78,0.059418440023521056,0.04683054379275273,0.01258789623076833
0.79,0.06081121508820144,0.04778210192857272,0.013029113159628722
0.8,0.06221456614399101,0.048727603836057364,0.013486962307933649
0.81,0.06362829459746612,0.04945148754289317,0.01417680705457295
0.8200000000000001,0.06505201304504443,0.05014371444912957,0.01490829859591486
0.8300000000000001,0.06648551764100061,0.050820513391109406,0.0156650042498912
0.8400000000000001,0.0679285415712925,0.051483555766037595,0.0164449858052549
0.85,0.06938081645856982,0.052141198961492406,0.017239617497077413
0.86,0.0708421425333562,0.05278201219445624,0.018060130338899964
0.87,0.07231211029640411,0.053260708157688505,0.019051402138715604
0.88,0.07379051584446845,0.05362084161194397,0.020169674232524484
0.89,0.07527708587943703,0.05398645799142795,0.021290627888009082
0.9,0.07677162225686346,0.054322228406789436,0.022449393850074023
0.91,0.0782736998578991,0.05478529196626061,0.023488407891638488
0.92,0.07978311749787056,0.05539450913027929,0.024388608367591276
0.93,0.08129967982082942,0.05599832163629515,0.025301358184534266
0.9400000000000001,0.08282295176432049,0.056588004236093094,0.026234947528227394
0.9500000000000001,0.08435273588254863,0.05715706740325748,0.027195668479291148
0.9600000000000001,0.0858888413412282,0.05770848663995108,0.028180354701277124
0.97,0.08743082443527446,0.05824307140807079,0.029187753027203667
0.98,0.08897858112392902,0.05873634246120905,0.030242238662719974
0.99,0.09053166354205654,0.05931306760317953,0.031218595938877006
1.0,0.09208988427171902,0.059874110427678706,0.03221577384404031
1.01,0.09365306392183347,0.06042494243266624,0.03322812148916723
1.02,0.09522074857519358,0.06095381110152185,0.03426693747367173
1.03,0.09679285542559891,0.06145203041196561,0.0353408250136333
1.04,0.09836892836663398,0.061934557646780936,0.036434370719853046
1.05,0.09994879589845457,0.06240404856129935,0.03754474733715522
1.06,0.10153229614927721,0.06286925665123999,0.03866303949803722
1.07,0.1031189700347094,0.06331889665904111,0.03980007337566829
1.08,0.10470876279650242,0.06373072594543011,0.040978036851072305
1.09,0.10630121546302987,0.06413661384371343,0.04216460161931644
1.1,0.10789628600399462,0.06452313741141229,0.04337314859258233
1.11,0.10949351659202379,0.06532952230514286,0.044163994286880934
1.12,0.11109287916376251,0.06625199342189383,0.044840885741868675
1.1300000000000001,0.11269391812040733,0.06715520714066212,0.04553871097974521
1.1400000000000001,0.11429662065445476,0.06807401671953764,0.04622260393491712
1.1500000000000001,0.11590053452766723,0.06898716714441352,0.046913367383253704
1.1600000000000001,0.11750566352615191,0.06957198545485492,0.04793367807129699
1.17,0.11911155995340338,0.07004552751173172,0.04906603244167165
1.18,0.12071824557162295,0.07050257424205052,0.05021567132957243
1.19,0.12232527844811272,0.07095627454284843,0.05136900390526429
1.2,0.12393269974819635,0.0714081599675234,0.05252453978067295
1.21,0.12554007456754798,0.07186098971068537,0.05367908485686261
1.22,0.12714746493811432,0.0723093136262592,0.05483815131185513
1.23,0.12875457123110115,0.07276459315903742,0.055989978072063726
1.24,0.13036109700787107,0.07321704684202894,0.057144050165842133
1.25,0.13196713652288802,0.07366556193769835,0.05830157458518967
1.26,0.133572280135664,0.07408715911712338,0.059485121018540615
1.27,0.13517664670731414,0.07448309301593932,0.060693553691374816
1.28,0.13677983837589333,0.07484528769206418,0.06193455068382915
1.29,0.13838200017205587,0.07518645358166562,0.06319554659039026
1.3,0.13998288534855827,0.075667520335837,0.06431536501272127
1.31,0.14158225287282025,0.07651162204454885,0.0650706308282714
1.32,0.14318028790612922,0.0773707037114979,0.06580958419463132
1.33,0.14477663030414897,0.07823885504358165,0.06653777526056733
1.34,0.1463714953047572,0.07911397541710999,0.06725751988764722
1.35,0.14796453955425606,0.08001141193064512,0.06795312762361094
1.36,0.14955600996815055,0.08090138255904115,0.0686546274091094
1.37,0.15114573065624587,0.08180467634959844,0.06934105430664743
1.3800000000000001,0.1527335340716867,0.0826789728182827,0.070054561253404
1.3900000000000001,0.1543197153279819,0.08356597297907116,0.07075374234891073
1.4000000000000001,0.15590398162923091,0.08444567490013621,0.0714583067290947
1.4100000000000001,0.15748666367548314,0.0853451573922263,0.07214150628325684
1.42,0.15906764765830889,0.08624929021190664,0.07281835744640225
1.43,0.1606468299684567,0.0869280279582488,0.07371880201020789
1.44,0.16222459516802504,0.08755802480534647,0.07466657036267857
1.45,0.1638008715646826,0.08818850373358143,0.07561236783110116
1.46,0.1653755987956108,0.08882403370497315,0.07655156509063767
1.47,0.16694921853945585,0.08942938814303564,0.07751983039642021
1.48,0.16852153874403192,0.09002540112432413,0.07849613761970779
1.49,0.1700930426548602,0.09060726707592494,0.07948577557893526
1.5,0.1716639018699041,0.0878035142073021,0.083860387662602
1.51,0.17323397117882003,0.0882714627362879,0.08496250844253213
1.52,0.1748037882525088,0.08876361605229802,0.08604017220021079
1.53,0.17637324780178795,0.08929622095072337,0.08707702685106458
1.54,0.1779429219074642,0.08948465698525342,0.08845826492221077
1.55,0.17951274654742333,0.08964023249931195,0.08987251404811138
1.56,0.18108332943047173,0.08978784550554408,0.09129548392492765
1.57,0.18265464908330897,0.08991792162592817,0.0927367274573808
1.58,0.18422735004302576,0.09004800418206595,0.09417934586095981
1.59,0.18580145458251604,0.08978210994545684,0.0960193446370592
1.6,0.18737764519767852,0.08894087611245294,0.09843676908522558
1.61,0.18895598909760591,0.0882563518917412,0.10069963720586471
1.62,0.19053720780943628,0.08758357028557937,0.10295363752385692
1.6300000000000001,0.19212141462221938,0.08690311565593163,0.10521829896628775
1.6400000000000001,0.19370937107219235,0.08666925986143523,0.10704011121075713
1.6500000000000001,0.1953012375781224,0.08655145225415609,0.10874978532396631
1.6600000000000001,0.19689781671033493,0.08645513234119338,0.11044268436914155
1.6700000000000002,0.19849931694179102,0.08638853306423619,0.11211078387755483
1.68,0.20010643061808142,0.08635466617556298,0.11375176444251844
1.69,0.2017198718665744,0.0863441182363439,0.11537575363023049
1.7,0.20334007136139823,0.08751365770638479,0.11582641365501344
1.71,0.20496748865249398,0.08797783751041749,0.11698965114207649
1.72,0.20660290585037738,0.08751537247700886,0.11908753337336853
1.73,0.2082471274888806,0.08710332588886205,0.12114380160001856
1.74,0.20990068222629374,0.0867330824222222,0.12316759980407153
1.75,0.211564128449126,0.08638587172676651,0.1251782567223595
1.76,0.21323834077032625,0.08605749625403065,0.12718084451629558
1.77,0.21492421706148088,0.08575980265819194,0.12916441440328894
1.78,0.21662238676365686,0.08547981192867347,0.13114257483498337
1.79,0.2183335095582097,0.08523465355141956,0.13309885600679017
1.8,0.22005855522910794,0.08497321443135639,0.13508534079775156
1.81,0.22179851700813788,0.08464371385253563,0.13715480315560225
1.82,0.22355412744369169,0.08489237461908994,0.13866175282460175
1.83,0.22532614963813968,0.08641857128899837,0.1389075783491413
1.84,0.22711565029758563,0.08778928181051648,0.13932636848706914
1.85,0.22892372020924054,0.08920000931159232,0.13972371089764823
1.86,0.23075119660328702,0.09068447792722752,0.14006671867605952
1.87,0.23259894725656075,0.09224816588159522,0.14035078137496554
1.8800000000000001,0.2344682728797719,0.09392845046672046,0.14053982241305144
1.8900000000000001,0.236359957280369,0.09573258502722821,0.14062737225314076
1.9000000000000001,0.2382753487030433,0.09762913044840389,0.1406462182546394
1.9100000000000001,0.24021528641589096,0.09882712778490332,0.14138815863098764
1.9200000000000002,0.24218116669069648,0.09882698215336815,0.14335418453732834
1.93,0.24417388325623063,0.09881917000985738,0.14535471324637325
1.94,0.24619488175888904,0.098705321946347,0.14748955981254203
1.95,0.24824510872138345,0.09864528940679552,0.14959981931458793
1.96,0.2503260581986039,0.09863381698175971,0.15169224121684416
1.97,0.25243873938851397,0.09867938142409428,0.1537593579644197
1.98,0.25458467967152354,0.09873783550973668,0.15584684416178685
1.99,0.25676495636179447,0.09882826603989235,0.1579366903219021
2.0,0.25898110609297875,0.0990052176713117,0.15997588842166705
2.01,0.26123447579664566,0.09927407042327005,0.1619604053733756
2.02,0.2635262289116277,0.11111787565488201,0.15240835325674568
2.03,0.26585798496342955,0.1128044582080466,0.15305352675538295
2.04,0.26823122124535514,0.11456784025762866,0.15366338098772647
2.05,0.27064721706407635,0.11613568988753672,0.15451152717653963
2.0599999999999996,0.27310768936429664,0.1175924888915405,0.15551520047275613
2.07,0.27561391820005127,0.11921518540796529,0.156398732792086
2.0799999999999996,0.2781676909255802,0.12119829355860005,0.15696939736698012
2.09,0.2807703324303266,0.1240235713597966,0.15674676107053004
2.0999999999999996,0.2834236743454551,0.12699000880451175,0.15643366554094337
2.11,0.2861291018493416,0.1300769730579991,0.1560521287913425
2.1199999999999997,0.28888849020420587,0.1326926613580299,0.15619582884617597
2.13,0.2917032821963112,0.13521769716195242,0.15648558503435878
2.1399999999999997,0.2945753973180633,0.13785378783194804,0.15672160948611527
2.15,0.29750632938234345,0.1406175516815442,0.15688877770079926
2.1599999999999997,0.3004980483806827,0.143333236606031,0.15716481177465172
2.17,0.3035520986077642,0.14597384614415196,0.15757825246361226
2.1799999999999997,0.30667049624733367,0.14859171329275167,0.158078782954582
2.19,0.3098548394918774,0.15131549167197472,0.1585393478199027
2.1999999999999997,0.3131071891363987,0.15373405926505482,0.15937312987134386
2.21,0.3164291961877591,0.15630912649375597,0.16012006969400314
2.2199999999999998,0.31982296490043466,0.15891491246990294,0.16090805243053172
2.23,0.32329019964684114,0.16757404973543538,0.15571614991140575
2.2399999999999998,0.3268330495884655,0.17065682571710328,0.1561762238713622
2.25,0.3304532690864497,0.17385153700230982,0.15660173208413986
2.26,0.3341530531687024,0.17719472806542041,0.156958325103282
2.27,0.3379342060323318,0.18068586777218856,0.15724833826014326
2.28,0.34179896718643776,0.18439605629692077,0.157402910889517
2.29,0.3457491907429743,0.18801120289341341,0.15773798784956086
2.3,0.3497871594465043,0.1914366354317923,0.158350524014712
2.31,0.3539147781339815,0.19504746052262692,0.15886731761135456
2.32,0.3581343725037464,0.1987426518724721,0.15939172063127433
2.3299999999999996,0.36244789626162704,0.2025899688919119,0.15985792736971516
2.34,0.3668577188446465,0.20662028002661972,0.1602374388180268
2.3499999999999996,0.37136584222626484,0.21090963655814673,0.1604562056681181
2.36,0.37597467769464704,0.21739249293000754,0.1585821847646395
2.3699999999999997,0.3806862763670901,0.22408921888121192,0.1565970574858782
2.38,0.3855030917455741,0.23094522583571872,0.1545578659098554
2.3899999999999997,0.39042722254184054,0.238015702773067,0.15241151976877354
2.4,0.39546116447252017,0.24531307348085876,0.1501480909916614
2.4099999999999997,0.40060706348627906,0.25275314052449116,0.1478539229617879
2.42,0.4058674564293443,0.2604250641983518,0.14544239223099248
2.4299999999999997,0.41124453710794145,0.2683221988830313,0.14292233822491013
2.44,0.41674088306393764,0.2764114968730693,0.14032938619086832
2.4499999999999997,0.4223587347073386,0.2839050984994364,0.1384536362079022
2.46,0.4281007109745875,0.2913385906470694,0.1367621203275181
2.4699999999999998,0.4339690987540988,0.2983633817949615,0.13560571695913726
2.48,0.4399665571875742,0.30568019909104194,0.13428635809653228
2.4899999999999998,0.44609541969129773,0.3132271859105395,0.13286823378075824
2.5,0.45235838590189703,0.3208613680887339,0.13149701781316314
2.51,0.45875783496560446,0.32877783436512353,0.12998000060048093
2.52,0.46529650714874354,0.33688180291422654,0.128414704234517
2.53,0.4719768273424999,0.34350347830592715,0.12847334903657276
2.54,0.4788015757119345,0.34919583329237874,0.12960574241955575
2.55,0.4857732227874843,0.355954707759172,0.12981851502831232
2.56,0.4928945889195317,0.36329984684738315,0.12959474207214855
2.57,0.5001681905145351,0.3709066379206373,0.12926155259389777
2.5799999999999996,0.5075968875986896,0.37886252116807595,0.12873436643061364
2.59,0.5151832421894224,0.3871201976167835,0.12806304457263884
2.5999999999999996,0.5229301546658528,0.39564188544058565,0.12728826922526715
2.61,0.53084023246481,0.40444470999732157,0.12639552246748847
2.6199999999999997,0.5389163391399252,0.41336904400336455,0.12554729513656065
2.63,0.5471613583219236,0.423343324264696,0.12381803405722758
2.6399999999999997,0.5555780404598701,0.43572234751085265,0.11985569294901749
2.65,0.5641691607285312,0.44832456679174953,0.11584459393678165
2.6599999999999997,0.5729377411821119,0.4607622942470813,0.11217544693503062
2.67,0.5818865258386988,0.4725436053149017,0.10934292052379713
2.6799999999999997,0.5910185774482034,0.4845919460425015,0.10642663140570191
2.69,0.6003366865935188,0.4969610088457262,0.1033756777477926
2.6999999999999997,0.6098439571493401,0.5087154754171621,0.10112848173217803
2.71,0.6195432255148463,0.5178989007519548,0.10164432476289154
2.7199999999999998,0.6294376379165034,0.5273868678821013,0.1020507700344021
2.73,0.6395300772945611,0.536924623595918,0.10260545369864316
2.7399999999999998,0.6498237319278707,0.5465264498877542,0.10329728204011646
2.75,0.6603215321289531,0.5564460076074716,0.10387552452148141
2.76,0.6710267085370171,0.5667579628413583,0.1042687456956588
2.77,0.6819422393874114,0.577430244592128,0.10451199479528339
2.78,0.6930713988290162,0.5883911443777324,0.10468025445128382
2.79,0.7044172130880716,0.59968817257912,0.1047290405089516
2.8,0.715983000482712,0.6115474509214903,0.1044355495612217
2.81,0.7277718358533147,0.6255433898154728,0.10222844603784198
2.82,0.7397870825807953,0.6437456796873662,0.0960414028934291
2.8299999999999996,0.7520318649868966,0.6627800847886667,0.08925178019822988
2.84,0.7645095918510488,0.6818235328414843,0.0826860590095645
2.8499999999999996,0.7772234380714615,0.7013743224741014,0.07584911559736018
2.86,0.7901768593318896,0.720890284978614,0.06928657435327568
2.8699999999999997,0.8033730810836275,0.7406401278637674,0.06273295321986005
2.88,0.8168156063794589,0.7607897350467633,0.056025871332695654
2.8899999999999997,0.8305077134790194,0.7813330795560254,0.04917463392299404
