q/kF, < omega_p(q)**3 >/wp(0)**3, Sum rule/wp(0)**3, < (omega/wp(0))**3*S > - SR
0.01,9.531535137733423e-06,1.0607253647602854e-05,-1.0757185098694309e-06
0.02,4.210840909046922e-05,4.214361703173556e-05,-3.52079412663402e-08
0.03,9.565867515623169e-05,9.408003850113042e-05,1.5786366551012688e-06
0.04,0.00017005706109535261,0.00016663182478409745,3.425236311255166e-06
0.05,0.00026567724096820223,0.0002618945539694962,3.78268699870605e-06
0.060000000000000005,0.0003825163750950867,0.00038498254866939694,-2.4661735743102117e-06
0.06999999999999999,0.0005205485879789129,0.0005451760006734561,-2.462741269454319e-05
0.08,0.000679763475603819,0.0007570769282592655,-7.731345265544652e-05
0.09,0.0008601218320521304,0.001041773821178162,-0.00018165198912603174
0.09999999999999999,0.001061605172875102,0.0014274787079058481,-0.0003658735350307461
0.11,0.0012841783323983267,0.0011847105240062232,9.946780839210348e-05
0.12,0.0015278067178149455,0.001283946272547722,0.00024386044526722352
0.13,0.001792453472649906,0.0013674245658957355,0.0004250289067541705
0.14,0.002078072847450689,0.0014387095849139238,0.0006393632625367651
0.15000000000000002,0.0023846228885453214,0.0015013804921805522,0.0008832423963647691
0.16,0.002712051872628937,0.0028421944207895605,-0.00013014254816062342
0.17,0.0030603064413753348,0.003199828443700232,-0.00013952200232489722
0.18000000000000002,0.0034293324232619617,0.003583030423365118,-0.0001536980001031565
0.19,0.00381906946471085,0.0038089712180600773,1.0098246650772774e-05
0.2,0.004229449043745365,0.004200366443425472,2.9082600319892474e-05
0.21000000000000002,0.004660406038103717,0.004601112606807813,5.92934312959037e-05
0.22,0.0051118626624124175,0.005021121955877201,9.074070653521636e-05
0.23,0.005583746016644594,0.005456948095539281,0.00012679792110531322
0.24000000000000002,0.006075974571415613,0.00591046286754234,0.00016551170387327317
0.25,0.006588455660591252,0.007244115288913531,-0.000655659628322279
0.26,0.007121104025465592,0.0068610775348127975,0.00026002649065279444
0.27,0.00767382403024491,0.007363633602046319,0.0003101904281985913
0.28,0.008246506892865556,0.007875019904353246,0.00037148698851231093
0.29000000000000004,0.008839054020701556,0.009253745208108602,-0.0004146911874070465
0.3,0.009451354531588033,0.010202652973029594,-0.0007512984414415613
0.31,0.010083282142426092,0.01122585051005435,-0.0011425683676282578
0.32,0.010734734628476553,0.010106693906408495,0.000628040722068058
0.33,0.011405563870171574,0.010702229840942117,0.0007033340292294573
0.34,0.012095634729850563,0.01132836648012519,0.0007672682497253721
0.35000000000000003,0.012804831611635707,0.014226527249200411,-0.0014216956375647048
0.36000000000000004,0.013532984547221263,0.014879373818745491,-0.0013463892715242284
0.37,0.014279954281333808,0.014670159646065864,-0.00039020536473205643
0.38,0.015045583147077358,0.015455020535436854,-0.00040943738835949595
0.39,0.01582970698576995,0.017929872222541346,-0.002100165236771395
0.4,0.016632138402564747,0.01858271160470024,-0.001950573202135493
0.41000000000000003,0.017452732209167317,0.017697501659179084,-0.0002447694500117663
0.42000000000000004,0.018291269844198665,0.01875005597677555,-0.0004587861325768862
0.43,0.019147557160977595,0.019759834961574737,-0.000612277800597142
0.44,0.02002143267389709,0.02066362144937002,-0.0006421887754729308
0.45,0.020912671903645402,0.021604145331412306,-0.0006914734277669032
0.46,0.021821039366242766,0.022644175466244573,-0.0008231361000018075
0.47000000000000003,0.02274633364078544,0.02363637456637371,-0.0008900409255882709
0.48000000000000004,0.023688325551947473,0.024671396322171968,-0.0009830707702244944
0.49,0.024646778013885484,0.029001281531758658,-0.004354503517873174
0.5,0.025621420327955027,0.030233366079980752,-0.004611945752025726
0.51,0.026612049373406832,0.031658528268587956,-0.005046478895181124
0.52,0.027618351400596496,0.03763490743001702,-0.010016556029420521
0.53,0.02864008195915211,0.03930639651763251,-0.010666314558480397
0.54,0.02967696250916271,0.0316932944067984,-0.0020163318976356877
0.55,0.03072867519576343,0.03304808660825857,-0.0023194114124951426
0.56,0.03179498443982461,0.03438177547066548,-0.0025867910308408695
0.5700000000000001,0.0328755230388403,0.03570373474985561,-0.0028282117110153063
0.5800000000000001,0.03397004193759928,0.03707787827199211,-0.0031078363343928286
0.59,0.035078151708278056,0.04001333290627031,-0.004935181197992251
0.6,0.03619955342325076,0.039797850485690456,-0.0035982970624396926
0.61,0.03733390617303784,0.04473745897645837,-0.007403552803420532
0.62,0.038480821422193376,0.04609720588230943,-0.007616384460116053
0.63,0.03964001546973359,0.04753503561554529,-0.007895020145811699
0.64,0.04081104158853244,0.04906281262001134,-0.0082517710314789
0.65,0.041993560112544584,0.050623565299091434,-0.00863000518654685
0.66,0.043187183580033255,0.05225322622286596,-0.009066042642832707
0.67,0.04439151512432381,0.05392262347099827,-0.009531108346674463
0.68,0.04560614846796615,0.05565382373907757,-0.010047675271111417
0.6900000000000001,0.046830667917647006,0.0574246822704894,-0.010594014352842393
0.7000000000000001,0.04806460039542393,0.055363005555313025,-0.007298405159889096
0.7100000000000001,0.04930755693512978,0.056845525220782844,-0.007537968285653063
0.72,0.05055914421452297,0.058334048659037324,-0.007774904444514355
0.73,0.05181880934060766,0.06891396554775803,-0.017095156207150367
0.74,0.05308613917172466,0.07099534555865239,-0.01790920638692773
0.75,0.054360662136700155,0.0715924562054309,-0.017231794068730738
0.76,0.055641841994228176,0.07372057060908896,-0.018078728614860783
0.77,0.05692929893705438,0.08099192720068164,-0.02406262826362726
0.78,0.058222421919136506,0.08338367696543805,-0.025161255046301546
0.79,0.05952081861931318,0.08578922848949347,-0.02626840987018029
0.8,0.06082385539063255,0.0882012953893575,-0.027377439998724953
0.81,0.06213106586741739,0.09059237805702695,-0.028461312189609567
0.8200000000000001,0.06344191718848419,0.09294156634379526,-0.029499649155311072
0.8300000000000001,0.06475586832662632,0.10148491248818535,-0.03672904416155903
0.8400000000000001,0.06607237027780417,0.10372858172105567,-0.0376562114432515
0.85,0.0673908662694824,0.10597021364174514,-0.038579347372262734
0.86,0.06871072336538818,0.1082600946132188,-0.03954937124783062
0.87,0.07003150587309089,0.1106421209479429,-0.040610615074852016
0.88,0.07135249653610459,0.11314886156294504,-0.04179636502684045
0.89,0.07267317850383338,0.11580205276400109,-0.043128874260167704
0.9,0.07399295980995826,0.11859743343187948,-0.044604473621921215
0.91,0.07531124228543216,0.344862965520639,-0.2695517232352068
0.92,0.07662742187401377,0.1245491355171631,-0.04792171364314933
0.93,0.07794088897197304,0.12724148170201607,-0.04930059273004303
0.9400000000000001,0.0792510287739198,0.1300608085991282,-0.05080977982520839
0.9500000000000001,0.08055722164503618,0.1330155016404091,-0.05245827999537292
0.9600000000000001,0.08185876173938746,0.1361026982361709,-0.054243936496783454
0.97,0.08315518320650284,0.1393083629199454,-0.05615317971344255
0.98,0.08444568945587486,0.14263147314683214,-0.05818578369095728
0.99,0.08572981301243042,0.14606066362760894,-0.060330850615178525
1.0,0.08700674623673628,0.14953733549937478,-0.0625305892626385
1.01,0.08827593358487218,0.1346611283101437,-0.04638519472527153
1.02,0.08953673339612622,0.3233331628664919,-0.23379642947036566
1.03,0.09078850274075638,0.15783061735793322,-0.06704211461717684
1.04,0.09203059794323898,0.17990783744181232,-0.08787723949857335
1.05,0.09326237511539442,0.18340080416486926,-0.09013842904947483
1.06,0.09448319071608947,0.186863982735202,-0.09238079201911252
1.07,0.09569230651790758,0.19031126772040138,-0.0946189612024938
1.08,0.09688927142786959,0.19377973231090576,-0.09689046088303617
1.09,0.09807335200523401,0.19729124547722035,-0.09921789347198634
1.1,0.0992438128133322,0.19906163220017453,-0.09981781938684234
1.11,0.10040021804399926,0.2019742820502403,-0.10157406400624103
1.12,0.10154173931583485,0.20519739906527723,-0.10365565974944238
1.1300000000000001,0.10266785151049522,0.2087994537007997,-0.10613160219030447
1.1400000000000001,0.10377803941358907,0.2128273471191713,-0.10904930770558224
1.1500000000000001,0.10487148381482979,0.2173126918215272,-0.11244120800669742
1.1600000000000001,0.105947681084642,0.21608920810838095,-0.11014152702373894
1.17,0.10700603244173405,0.22236206629887859,-0.11535603385714453
1.18,0.1080459472397969,0.22927214722811304,-0.12122619998831614
1.19,0.10906684370186186,0.2366306320783756,-0.12756378837651372
1.2,0.11006814965677167,0.24269316618485562,-0.13262501652808395
1.21,0.11104930328728065,0.2472050938387982,-0.13615579055151755
1.22,0.11200975388669861,0.2516823398269613,-0.13967258594026272
1.23,0.11294896261689912,0.2561013481145736,-0.14315238549767445
1.24,0.11386640328736644,0.2604689716130159,-0.14660256832564947
1.25,0.11476156311418471,0.23844780232274515,-0.12368623920856044
1.26,0.11563382798292103,0.3465171439606714,-0.23088331597775036
1.27,0.11648294452881541,0.24686286924281833,-0.13037992471400292
1.28,0.11730833021777488,0.22354745509426902,-0.10623912487649413
1.29,0.11810941573548028,0.2274472845104063,-0.10933786877492602
1.3,0.11888600239887011,0.23142087308141687,-0.11253487068254676
1.31,0.11963755711204406,0.26438920860492604,-0.144751651492882
1.32,0.12036356269125174,0.23971461500319963,-0.11935105231194788
1.33,0.12106388171465145,0.3016149183110711,-0.1805510365964197
1.34,0.12173791620502783,0.24726512745315327,-0.12552721124812544
1.35,0.12238557326509439,0.30429527528186223,-0.18190970201676784
1.36,0.12300629547722786,0.3100624134215902,-0.18705611794436233
1.37,0.12360003729535232,0.3166604023965064,-0.19306036510115407
1.3800000000000001,0.12416628516446747,0.3239102275030921,-0.19974394233862464
1.3900000000000001,0.12470504368927854,0.33612706222665895,-0.2114220185373804
1.4000000000000001,0.12521584634369193,0.34203215287012195,-0.21681630652643002
1.4100000000000001,0.12569862501968956,0.332467230563796,-0.20676860554410645
1.42,0.12615334018474061,0.3359610457888616,-0.209807705604121
1.43,0.12657960159513765,0.3591009735014381,-0.23252137190630046
1.44,0.12697742420628774,0.32793017640526495,-0.2009527521989772
1.45,0.1273468531326775,0.36831748804331765,-0.24097063491064016
1.46,0.12768758130767552,0.3739745896697332,-0.24628700836205766
1.47,0.12799971245003935,0.3797692276928313,-0.2517695152427919
1.48,0.12828325390944367,0.385745572793905,-0.2574623188844613
1.49,0.12853837258926293,0.3919000102258215,-0.26336163763655857
1.5,0.12876488182710608,0.39821183176228736,-0.26944694993518126
1.51,0.12896301209740393,0.40468546250027265,-0.2757224504028687
1.52,0.12913289880198514,0.37262521430987283,-0.2434923155078877
1.53,0.12927483911917684,0.41601025665365765,-0.28673541753448084
1.54,0.12938877715536656,0.42278353650200234,-0.2933947593466358
1.55,0.12947507872495206,0.42978258767965927,-0.3003075089547072
1.56,0.12953401517710011,0.437066676197626,-0.3075326610205259
1.57,0.12956589323767562,0.44466953098831163,-0.315103637750636
1.58,0.12957105461868876,0.4525251299408054,-0.3229540753221166
1.59,0.12954987862652098,0.46054297642239517,-0.33099309779587416
1.6,0.12950277916681638,0.4557186191115663,-0.3262158399447499
1.61,0.12943020877892525,0.46451736446250075,-0.3350871556835755
1.62,0.1293326555967229,0.4741808515484082,-0.3448481959516853
1.6300000000000001,0.12921064580603844,0.4845448498988545,-0.355334204092816
1.6400000000000001,0.12906474361816384,0.49542132818970075,-0.3663565845715369
1.6500000000000001,0.12889555110137865,0.4121370953404399,-0.2832415442390612
1.6600000000000001,0.12870357946962863,0.4216307130496381,-0.2929271335800095
1.6700000000000002,0.1284897645009613,0.42826596259252414,-0.29977619809156286
1.68,0.1282546950990122,0.43500794965188916,-0.30675325455287694
1.69,0.12799899880786247,0.4178647071010897,-0.2898657082932272
1.7,0.12772372676733884,0.42460684239732477,-0.2968831156299859
1.71,0.12742945692631208,0.43153951684101494,-0.30411005991470286
1.72,0.12711719044452396,0.5541325425069035,-0.4270153520623795
1.73,0.12678783920003867,0.4712792512054134,-0.34449141200537475
1.74,0.12644235437829826,0.4791539609587501,-0.35271160658045186
1.75,0.12608172648720403,0.4872334587551475,-0.3611517322679435
1.76,0.12570698496767985,0.49547573639052533,-0.3697687514228455
1.77,0.12531919857933932,0.4741768446779523,-0.348857646098613
1.78,0.12491935025795449,0.4821658269872889,-0.3572464767293344
1.79,0.1245088368334556,0.5445059520995198,-0.4199971152660642
1.8,0.12408859463194241,0.5536923605375147,-0.42960376590557225
1.81,0.12365997286195599,0.6456177975463728,-0.5219578246844169
1.82,0.12322411140516736,0.6561741720791712,-0.5329500606740039
1.83,0.12278255847988329,0.6669945516909088,-0.5442119932110255
1.84,0.12233640785050473,0.6780151748737979,-0.5556787670232932
1.85,0.12188716044136688,0.6075628654478775,-0.48567570500651064
1.86,0.12143623176383145,0.7004569448780574,-0.579020713114226
1.87,0.12098504512466414,0.7118343613049981,-0.590849316180334
1.8800000000000001,0.12053781267011855,0.5738708487237968,-0.45333303605367825
1.8900000000000001,0.12010187075666441,0.7311346822974252,-0.6110328115407607
1.9000000000000001,0.11968540319279866,0.5932402386149334,-0.4735548354221347
1.9100000000000001,0.11929650297017289,0.6031330011629598,-0.48383649819278685
1.9200000000000002,0.11894216036174338,0.6130484618243776,-0.4941063014626342
1.93,0.11862744246046517,0.6229998493876732,-0.504372406927208
1.94,0.11835640469991103,0.6330905504878253,-0.5147341457879142
1.95,0.11813149892737766,0.6433347548714247,-0.525203255944047
1.96,0.11795431770685713,0.6540115525056532,-0.5360572347987961
1.97,0.11782560181458228,0.6646204710984488,-0.5467948692838666
1.98,0.11774591481622863,0.6755165742954686,-0.55777065947924
1.99,0.11771509887649194,0.6867225765908543,-0.5690074777143624
2.0,0.11773275381371309,0.8006418658585815,-0.6829091120448685
2.01,0.11779868571756918,0.8134654313233725,-0.6956667456058032
2.02,0.11791215490000051,0.8266205607848964,-0.7087084058848959
2.03,0.11807287099615099,0.84015419565564,-0.722081324659489
2.04,0.11828008904779681,1.0146320103736985,-0.8963519213259017
2.05,0.11853358152710124,0.868350087777457,-0.7498165062503558
2.0599999999999996,0.11883283150612765,0.9437951161095032,-0.8249622846033755
2.07,0.11917739976228672,0.8979500379247863,-0.7787726381624996
2.0799999999999996,0.11956729193154116,0.9858870940576879,-0.8663198021261468
2.09,0.12000225066326238,1.0019488166281851,-0.8819465659649227
2.0999999999999996,0.12048223465351475,1.0180859352452871,-0.8976037005917724
2.11,0.12100730132553145,1.034394373797303,-0.9133870724717714
2.1199999999999997,0.12157760730603952,0.9755183168253352,-0.8539407095192957
2.13,0.12219340804575198,0.9915829054890899,-0.8693894974433379
2.1399999999999997,0.1228551792841962,1.0077246204742905,-0.8848694411900943
2.15,0.12356312551999643,1.023953216789158,-0.9003900912691616
2.1599999999999997,0.12431803719311295,1.0401588858748603,-0.9158408486817473
2.17,0.12512042855265734,1.1350641175214613,-1.009943688968804
2.1799999999999997,0.12597102815269626,1.1518963756057388,-1.0259253474530425
2.19,0.1268706540456569,1.1689932752909333,-1.0421226212452765
2.1999999999999997,0.12782034029373454,1.186507793885941,-1.0586874535922064
2.21,0.12882095414021405,1.2044028971790985,-1.0755819430388844
2.2199999999999998,0.1298735741361623,1.2254763811110676,-1.0956028069749053
2.23,0.13097936346130754,1.2419742059273176,-1.11099484246601
2.2399999999999998,0.13213956852090153,1.2594818801904344,-1.127342311669533
2.25,0.13335565191249313,1.2782890084327714,-1.1449333565202782
2.26,0.13462902887119993,1.2973875419437486,-1.1627585130725486
2.27,0.13596092497819065,1.3169464761662195,-1.180985551188029
2.28,0.1373531856645224,1.3370561958565794,-1.199703010192057
2.29,0.13880733281521712,1.3575328050231543,-1.2187254722079373
2.3,0.14032510444239202,1.3781312165864936,-1.2378061121441015
2.31,0.14190846221683642,1.3989090451697295,-1.257000582952893
2.32,0.14355916952660705,1.4200151468424964,-1.2764559773158894
2.3299999999999996,0.1452793564682964,1.44148429579177,-1.2962049393234736
2.34,0.14707094980190866,1.4633042915646852,-1.3162333417627765
2.3499999999999996,0.14893625106663094,1.4853935560911238,-1.3364573050244928
2.36,0.15087720260207796,1.459830023760387,-1.308952821158309
2.3699999999999997,0.1528965814668023,1.4819256813737118,-1.3290290999069097
2.38,0.15499650265190035,1.5034220003460022,-1.3484254976941017
2.3899999999999997,0.1571794680485636,1.5744101840377145,-1.4172307159891508
2.4,0.15944822977977563,1.5961344711081158,-1.43668624132834
2.4099999999999997,0.1618053185451166,1.6175543630239186,-1.455749044478802
2.42,0.1642536788842461,1.6393626717607486,-1.4751089928765024
2.4299999999999997,0.16679619578247723,1.6621561256084956,-1.4953599298260183
2.44,0.16943568491489452,1.6864049702536403,-1.5169692853387458
2.4499999999999997,0.17217522599101542,1.7121697121136985,-1.539994486122683
2.46,0.17501835414164757,1.6873671875349847,-1.5123488333933373
2.4699999999999998,0.17796802583645474,1.6801416365435475,-1.5021736107070929
2.48,0.18102764960648685,1.7125321040528445,-1.5315044544463576
2.4899999999999998,0.18420112073811803,1.752343462435577,-1.568142341697459
2.5,0.18749173582140866,1.7454101137821283,-1.5579183779607195
2.51,0.1909034699832455,1.8236654852600842,-1.6327620152768387
2.52,0.19444006557483254,1.8511994424155132,-1.6567593768406805
2.53,0.1981058010498445,1.8791911893057491,-1.6810853882559047
2.54,0.20190493989164077,1.9076208869036524,-1.7057159470120116
2.55,0.20584194302351821,1.9364280867276455,-1.7305861437041274
2.56,0.20992150688369127,1.9687897098923437,-1.7588682030086524
2.57,0.21414841146231522,1.99858047969821,-1.784432068235895
2.5799999999999996,0.2185284796327945,2.0251469005927523,-1.8066184209599578
2.59,0.2230672915031118,2.0552785324088134,-1.8322112409057016
2.5999999999999996,0.22777213815664699,2.0858648053763083,-1.8580926672196614
2.61,0.23265233809243013,2.120555797713243,-1.8879034596208129
2.6199999999999997,0.23772358465990437,2.1522037805153533,-1.914480195855449
2.63,0.24303849086366258,2.1844381597381703,-1.9413996688745079
2.6399999999999997,0.2491238198854061,2.216710232254914,-1.9675864123695077
2.65,0.25551481907905044,2.2493872321934005,-1.9938724131143502
2.6599999999999997,0.26210294429380243,2.2826695218710067,-2.0205665775772044
2.67,0.26889132498281576,2.2839205986617337,-2.015029273678918
2.6799999999999997,0.27588310118378984,2.3113584747308265,-2.035475373547037
2.69,0.2830817071472421,2.3878305844805285,-2.1047488773332863
2.6999999999999997,0.29049003691765446,2.302344680721404,-2.0118546438037495
2.71,0.298111562498627,2.5255024010507534,-2.227390838552126
2.7199999999999998,0.3059491872305355,2.564621495817882,-2.2586723085873466
2.73,0.3140061089414577,2.604541612971022,-2.2905355040295645
2.7399999999999998,0.32228585918258096,2.5163532013334344,-2.1940673421508534
2.75,0.330791354646916,2.2735974982096714,-1.9428061435627555
2.76,0.33952582985059127,2.721541524323389,-2.3820156944727975
2.77,0.34849288026086145,2.762030954446333,-2.4135380741854715
2.78,0.3576954358701972,2.803277682699904,-2.445582246829707
2.79,0.3671371370772115,2.845353506448539,-2.4782163693713275
2.8,0.37682092405283396,2.8883015488472457,-2.5114806247944115
2.81,0.38675009803503735,2.9320987991408383,-2.5453487011058007
2.82,0.39692837066449926,2.9764696698796733,-2.5795412992151743
2.8299999999999996,0.4073586974719764,3.0212791465964965,-2.61392044912452
2.84,0.4180448401188072,3.06660850023314,-2.6485636601143328
2.8499999999999996,0.42898976415188306,3.1127338318103988,-2.6837440676585156
2.86,0.4401968463592729,4.7283760603620975,-4.288179214002825
2.8699999999999997,0.4516699239579243,3.1937021683968414,-2.742032244438917
2.88,0.4634124550232737,3.243933297053014,-2.7805208420297403
